Baseline 100%T,,5%,,10%,,15%,,B,,A,,
Wavelength (nm),%T,Wavelength (nm),%T,Wavelength (nm),%T,Wavelength (nm),%T,Wavelength (nm),%T,Wavelength (nm),%T,
1200,69.91186523,1200,81.28781891,1200,37.20223236,1200,26.09996796,1200,77.8134079,1200,68.97222137,
1199,69.94763184,1199,85.85024261,1199,38.35323715,1199,26.36267281,1199,77.80799103,1199,68.97810364,
1198,69.9439621,1198,89.37341309,1198,39.72799301,1198,26.75835228,1198,77.80345917,1198,68.98949432,
1197,69.93121338,1197,91.37770844,1197,41.4575386,1197,27.27495956,1197,77.80503082,1197,68.97879028,
1196,69.93456268,1196,91.21147156,1196,43.48429871,1196,27.97425652,1196,77.80749512,1196,68.98339844,
1195,69.93823242,1195,88.74706268,1195,45.8045578,1195,28.77602959,1195,77.80692291,1195,68.96457672,
1194,69.92860413,1194,83.97892761,1194,48.56300354,1194,29.78647041,1194,77.77801514,1194,68.98428345,
1193,69.94394684,1193,77.36058807,1193,51.71274567,1193,31.02474785,1193,77.80249023,1193,68.96892548,
1192,69.93885803,1192,69.4933548,1192,55.3391571,1192,32.48313522,1192,77.81861877,1192,68.97650146,
1191,69.94989777,1191,60.75898361,1191,59.57616425,1191,34.24721146,1191,77.78385925,1191,68.95791626,
1190,69.95823669,1190,52.0372467,1190,64.2820816,1190,36.3144722,1190,77.76602936,1190,68.97028351,
1189,69.948349,1189,44.28949738,1189,69.13658905,1189,38.65795517,1189,77.78227234,1189,68.96136475,
1188,69.93395233,1188,37.18602753,1188,74.21260834,1188,41.39365005,1188,77.80153656,1188,68.97832489,
1187,69.95198059,1187,31.10406113,1187,78.8946991,1187,44.43733978,1187,77.74819183,1187,68.96772766,
1186,69.9515686,1186,25.93551064,1186,82.81327057,1186,47.74860382,1186,77.77359009,1186,68.95640564,
1185,69.94187164,1185,21.63297081,1185,85.32992554,1185,51.24556351,1185,77.79400635,1185,68.96138763,
1184,69.95639801,1184,18.00943375,1184,85.89663696,1184,54.79418182,1184,77.77330017,1184,68.94366455,
1183,69.9429245,1183,15.06906033,1183,84.11685944,1183,57.9925766,1183,77.77888489,1183,68.97303009,
1182,69.94316864,1182,12.79661465,1182,80.11258698,1182,60.47917557,1182,77.76101685,1182,68.97433472,
1181,69.95024109,1181,10.7756567,1181,73.99441528,1181,62.13260269,1181,77.77351379,1181,68.95669556,
1180,69.96386719,1180,9.176076889,1180,66.47132874,1180,62.51071548,1180,77.77210999,1180,68.94989014,
1179,69.9415741,1179,7.883553028,1179,58.39307404,1179,61.6356926,1179,77.78373718,1179,68.97803497,
1178,69.94396973,1178,6.768646717,1178,49.92097473,1178,59.28646469,1178,77.79532623,1178,68.94076538,
1177,69.94975281,1177,5.858818054,1177,42.09537888,1177,55.79376221,1177,77.76730347,1177,68.9747467,
1176,69.95459747,1176,5.070549011,1176,35.28853989,1176,51.46260071,1176,77.77455139,1176,69.01296234,
1175,69.93886566,1175,4.436812878,1175,29.40505791,1175,46.49266052,1175,77.78324127,1175,68.98029327,
1174,69.96077728,1174,3.888689756,1174,24.38494492,1174,41.18019867,1174,77.75810242,1174,68.95123291,
1173,69.95943451,1173,3.43759799,1173,20.27436829,1173,36.07322311,1173,77.77669525,1173,68.9553833,
1172,69.94814301,1172,3.019752264,1172,16.77974319,1172,30.90585709,1172,77.80662537,1172,68.97927094,
1171,69.94219208,1171,2.697827101,1171,13.98579884,1171,26.23037148,1171,77.81481171,1171,68.99292755,
1170,69.95304871,1170,2.412442923,1170,11.75910187,1170,22.13948441,1170,77.77330017,1170,68.96536255,
1169,69.9550705,1169,2.170084715,1169,9.887865067,1169,18.48917389,1169,77.78988647,1169,68.98526764,
1168,69.95664978,1168,1.94705987,1168,8.417901039,1168,15.45111942,1168,77.77962494,1168,68.9657135,
1167,69.96529388,1167,1.757529736,1167,7.169250488,1167,12.90631771,1167,77.7780838,1167,68.95745087,
1166,69.97263336,1166,1.582993507,1166,6.154757977,1166,10.72732639,1166,77.76559448,1166,68.95322418,
1165,69.96465302,1165,1.446971655,1165,5.259087086,1165,8.966456413,1165,77.7639389,1165,68.95214844,
1164,69.94481659,1164,1.290861607,1164,4.56810379,1164,7.542751789,1164,77.79983521,1164,68.98538208,
1163,69.95015717,1163,1.214198351,1163,3.998755932,1163,6.41196537,1163,77.7735672,1163,68.96866608,
1162,69.94744873,1162,1.100637913,1162,3.496065378,1162,5.442768574,1162,77.7951889,1162,68.97771454,
1161,69.95581818,1161,1.011085033,1161,3.088474035,1161,4.650325775,1161,77.77973175,1161,68.9901123,
1160,69.95507813,1160,0.9173178077,1160,2.720245361,1160,4.017801762,1160,77.77692413,1160,68.98453522,
1159,69.96782684,1159,0.8573734164,1159,2.426667213,1159,3.442814827,1159,77.78955078,1159,68.97358704,
1158,69.95948792,1158,0.8100496531,1158,2.140695333,1158,3.02100873,1158,77.77684021,1158,68.97923279,
1157,69.99526978,1157,0.7314502001,1157,1.899564624,1157,2.641914606,1157,77.74545288,1157,68.93759155,
1156,69.96179199,1156,0.7011833191,1156,1.727458835,1156,2.317584753,1156,77.77204895,1156,68.95298004,
1155,69.93889618,1155,0.6595452428,1155,1.556157827,1155,2.049283266,1155,77.81850433,1155,69.00024414,
1154,69.95681763,1154,0.6119890809,1154,1.409359217,1154,1.83504796,1154,77.79351807,1154,68.98023987,
1153,69.96943665,1153,0.564694643,1153,1.269030452,1153,1.621994376,1153,77.78472137,1153,68.96502686,
1152,69.95363617,1152,0.5302725434,1152,1.176267028,1152,1.475294352,1152,77.81228638,1152,68.98936462,
1151,69.95708466,1151,0.5152161717,1151,1.073551297,1151,1.315373302,1151,77.80366516,1151,68.98521423,
1150,69.96550751,1150,0.466824472,1150,0.9746463299,1150,1.202379942,1150,77.76023102,1150,68.98432922,
1149,69.97394562,1149,0.4536025822,1149,0.9016594887,1149,1.088068962,1149,77.78875732,1149,68.96335602,
1148,69.96350098,1148,0.4434390068,1148,0.8211696744,1148,0.975880146,1148,77.80731964,1148,68.97714233,
1147,69.87240601,1147,0.413130492,1147,0.767768383,1147,0.8802376986,1147,77.90470886,1147,69.0681076,
1146,69.94857025,1146,0.4006238282,1146,0.7071095109,1146,0.8199006319,1146,77.79528809,1146,68.95100403,
1145,69.96868896,1145,0.3635299802,1145,0.6605144143,1145,0.7586300373,1145,77.77515411,1145,68.99328613,
1144,69.96024323,1144,0.3461464643,1144,0.6044422388,1144,0.7074763775,1144,77.80686951,1144,68.98519897,
1143,69.94979095,1143,0.3407757282,1143,0.5741990805,1143,0.6369967461,1143,77.7986145,1143,68.98991394,
1142,69.95793915,1142,0.3483855724,1142,0.5320670009,1142,0.5976564288,1142,77.8058548,1142,68.99839783,
1141,69.95053101,1141,0.2984015048,1141,0.5096058249,1141,0.5528723001,1141,77.80176544,1141,68.98298645,
1140,69.97948456,1140,0.3079893887,1140,0.4789147079,1140,0.5269462466,1140,77.73568726,1140,68.95610046,
1139,69.96183777,1139,0.2901407778,1139,0.4628465176,1139,0.5020909905,1139,77.7746582,1139,68.9686203,
1138,69.947258,1138,0.2760185599,1138,0.4441097379,1138,0.4576034844,1138,77.79849243,1138,68.97623444,
1137,69.93927002,1137,0.2834638953,1137,0.4049589336,1137,0.4509347081,1137,77.76520538,1137,68.98409271,
1136,69.9417572,1136,0.2834276259,1136,0.3781934679,1136,0.422085017,1136,77.78263092,1136,68.97635651,
1135,69.96442413,1135,0.2505069971,1135,0.3888593018,1135,0.3924149871,1135,77.77163696,1135,68.99495697,
1134,69.92829132,1134,0.2331398875,1134,0.3638886809,1134,0.3917200863,1134,77.78381348,1134,69.04743195,
1133,69.96311951,1133,0.2528422475,1133,0.3328261673,1133,0.3573499024,1133,77.79409027,1133,68.98694611,
1132,69.97769165,1132,0.2361802906,1132,0.3201022148,1132,0.3455380499,1132,77.77207184,1132,68.98188019,
1131,69.94779968,1131,0.243881762,1131,0.296273917,1131,0.3333761692,1131,77.80451965,1131,69.00732422,
1130,69.94116211,1130,0.2342138439,1130,0.307895422,1130,0.307926327,1130,77.79219055,1130,69.03566742,
1129,69.95219421,1129,0.2214534432,1129,0.2771751881,1129,0.2997283936,1129,77.78367615,1129,68.98511505,
1128,69.95279694,1128,0.2155206203,1128,0.2783024311,1128,0.2845477462,1128,77.77589417,1128,68.97063446,
1127,69.94883728,1127,0.2049591839,1127,0.2545205057,1127,0.2615113854,1127,77.76371002,1127,69.00333405,
1126,69.94805145,1126,0.2106213868,1126,0.2609505355,1126,0.2730138898,1126,77.79457092,1126,68.99702454,
1125,69.94667816,1125,0.2150328308,1125,0.2561801076,1125,0.2557213008,1125,77.76902008,1125,69.00218964,
1124,69.93402863,1124,0.1990122497,1124,0.2559545934,1124,0.2536609769,1124,77.80671692,1124,69.00107574,
1123,69.95336914,1123,0.1901752353,1123,0.2558002174,1123,0.2590835094,1123,77.77852631,1123,68.97425079,
1122,69.94863129,1122,0.1978749335,1122,0.2532651424,1122,0.2260755301,1122,77.79120636,1122,68.9969635,
1121,69.97031403,1121,0.1867562979,1121,0.2484199852,1121,0.2216385901,1121,77.75537872,1121,68.97023773,
1120,69.90373993,1120,0.1838308573,1120,0.227810204,1120,0.2367002964,1120,77.83114624,1120,69.05157471,
1119,69.95537567,1119,0.1896333843,1119,0.2036329657,1119,0.2122418731,1119,77.78269196,1119,68.98806763,
1118,69.94236755,1118,0.191913411,1118,0.2085730135,1118,0.2273223549,1118,77.79966736,1118,68.98287964,
1117,69.93753052,1117,0.1836189479,1117,0.229853645,1117,0.2136520296,1117,77.79662323,1117,69.00531769,
1116,69.94875336,1116,0.1857363135,1116,0.1972711682,1116,0.1974912286,1116,77.8008728,1116,68.98748016,
1115,69.93875885,1115,0.1761657298,1115,0.1901909411,1115,0.1962876022,1115,77.78516388,1115,68.99667358,
1114,69.92293549,1114,0.1781083792,1114,0.2031241953,1114,0.2088385671,1114,77.79270935,1114,68.98910522,
1113,69.95728302,1113,0.1759109497,1113,0.2082269937,1113,0.2054286152,1113,77.76287079,1113,68.98960876,
1112,69.94454193,1112,0.1681966335,1112,0.1890260577,1112,0.1919361353,1112,77.77880096,1112,68.96126556,
1111,69.90813446,1111,0.1782701164,1111,0.2097241879,1111,0.1757463813,1111,77.82218933,1111,68.98298645,
1110,69.92673492,1110,0.177109167,1110,0.1849426031,1110,0.2016198337,1110,77.79197693,1110,68.98403168,
1109,69.93016052,1109,0.1678637862,1109,0.2121110857,1109,0.1763590425,1109,77.77972412,1109,68.96360016,
1108,69.91905212,1108,0.1709192246,1108,0.1755131036,1108,0.1979882121,1108,77.78533173,1108,68.97108459,
1107,69.92069244,1107,0.1714439094,1107,0.1897514462,1107,0.1571867913,1107,77.77629089,1107,68.9879837,
1106,69.93589783,1106,0.1736382693,1106,0.1665154845,1106,0.1674917489,1106,77.77017975,1106,68.96665955,
1105,69.91793823,1105,0.1576739997,1105,0.1998896748,1105,0.172110945,1105,77.79911041,1105,68.96867371,
1104,69.9307785,1104,0.152156651,1104,0.1827547252,1104,0.1684211344,1104,77.77548218,1104,68.98364258,
1103,69.92957306,1103,0.138553068,1103,0.1758522093,1103,0.1733712107,1103,77.77999878,1103,68.96209717,
1102,69.90930176,1102,0.169957757,1102,0.161821425,1102,0.180369243,1102,77.81156158,1102,68.98949432,
1101,69.8658905,1101,0.1599915028,1101,0.1651854515,1101,0.1732490361,1101,77.81600952,1101,69.00149536,
1100,69.92019653,1100,0.1455375105,1100,0.1758313924,1100,0.1755328774,1100,77.76480103,1100,68.98921967,
1099,69.90812683,1099,0.1662504524,1099,0.1585459262,1099,0.1605264097,1099,77.79084778,1099,68.97225952,
1098,69.91300964,1098,0.1491421908,1098,0.1678362787,1098,0.1766192168,1098,77.77528381,1098,68.99129486,
1097,69.9176712,1097,0.1621170491,1097,0.1571102589,1097,0.1611406505,1097,77.79062653,1097,68.96129608,
1096,69.89505005,1096,0.1508182585,1096,0.1647033542,1096,0.1637094319,1096,77.77124023,1096,68.99646759,
1095,69.88453674,1095,0.1682765186,1095,0.1634979248,1095,0.1685415506,1095,77.79930115,1095,68.97169495,
1094,69.89820862,1094,0.1555205435,1094,0.1550817937,1094,0.166648075,1094,77.79404449,1094,68.97437286,
1093,69.89453125,1093,0.1478522867,1093,0.1633399129,1093,0.1499877125,1093,77.78922272,1093,68.95810699,
1092,69.88978577,1092,0.155148387,1092,0.1431680918,1092,0.1493263543,1092,77.7624054,1092,68.97998047,
1091,69.89072418,1091,0.1471173316,1091,0.1530738324,1091,0.1587214023,1091,77.78120422,1091,68.95582581,
1090,69.87970734,1090,0.1723531187,1090,0.1636223793,1090,0.1713101864,1090,77.80656433,1090,69.00014496,
1089,69.88908386,1089,0.1575444043,1089,0.1642148197,1089,0.1616102308,1089,77.77741241,1089,68.97283936,
1088,69.87469482,1088,0.1601158679,1088,0.1591173559,1088,0.1461500227,1088,77.77573395,1088,68.97429657,
1087,69.89696503,1087,0.1227052286,1087,0.1644766033,1087,0.155262351,1087,77.73583221,1087,68.93183136,
1086,69.88803864,1086,0.1599022895,1086,0.164499253,1086,0.1663325429,1086,77.76200867,1086,68.94685364,
1085,69.8738327,1085,0.1611070037,1085,0.1627975702,1085,0.1575825214,1085,77.77828979,1085,68.9981842,
1084,69.89208221,1084,0.1453990489,1084,0.1553854048,1084,0.1548147649,1084,77.75656128,1084,68.94676971,
1083,69.86431122,1083,0.1427183449,1083,0.1233768314,1083,0.1549076289,1083,77.78987122,1083,68.97442627,
1082,69.85910034,1082,0.1635190547,1082,0.1665836424,1082,0.1718325466,1082,77.78168488,1082,68.97586823,
1081,69.87704468,1081,0.1562436074,1081,0.1389829665,1081,0.1448260546,1081,77.75721741,1081,68.94371796,
1080,69.84884644,1080,0.1468210667,1080,0.1481844336,1080,0.1587340683,1080,77.7960968,1080,68.9775238,
1079,69.86135101,1079,0.1429165304,1079,0.1524963528,1079,0.1617635787,1079,77.76757813,1079,68.95696259,
1078,69.85472107,1078,0.1590381414,1078,0.1373701692,1078,0.1606590152,1078,77.77613068,1078,68.96089172,
1077,69.85405731,1077,0.1447074115,1077,0.1516720802,1077,0.1633190364,1077,77.77111816,1077,68.94900513,
1076,69.86318207,1076,0.1431238055,1076,0.1437195092,1076,0.1454163641,1076,77.75820923,1076,68.92753601,
1075,69.84082031,1075,0.1462718993,1075,0.1371424049,1075,0.1552435905,1075,77.78082275,1075,68.96611786,
1074,69.85237122,1074,0.1527447551,1074,0.1586012244,1074,0.1617214382,1074,77.75234222,1074,68.92861176,
1073,69.85848236,1073,0.1337668151,1073,0.1589571685,1073,0.1491796374,1073,77.75932312,1073,68.93495941,
1072,69.83480835,1072,0.1587756872,1072,0.1420440674,1072,0.1434061825,1072,77.78135681,1072,68.96783447,
1071,69.84081268,1071,0.144961223,1071,0.1522474736,1071,0.1408440471,1071,77.77931976,1071,68.94825745,
1070,69.83908081,1070,0.1448031515,1070,0.1602407396,1070,0.1545834988,1070,77.75294495,1070,68.93896484,
1069,69.83633423,1069,0.1368146837,1069,0.1565172523,1069,0.1493771076,1069,77.75622559,1069,68.93108368,
1068,69.82971191,1068,0.1529739052,1068,0.1608103961,1068,0.1572645158,1068,77.74575043,1068,68.94205475,
1067,69.83059692,1067,0.1480404735,1067,0.1464619935,1067,0.1593839526,1067,77.76094818,1067,68.91783905,
1066,69.8263855,1066,0.1560069919,1066,0.1475556344,1066,0.1360821128,1066,77.76116943,1066,68.93078613,
1065,69.82995605,1065,0.1651954353,1065,0.1353471726,1065,0.1462840736,1065,77.75321198,1065,68.93122864,
1064,69.81770325,1064,0.1427325755,1064,0.1285376549,1064,0.1416065246,1064,77.75038147,1064,68.94020081,
1063,69.80976868,1063,0.1458393037,1063,0.1661118865,1063,0.1445604563,1063,77.7543335,1063,68.95343781,
1062,69.81672668,1062,0.1343132257,1062,0.1616185009,1062,0.1456713378,1062,77.72724915,1062,68.9211731,
1061,69.79737854,1061,0.1245962456,1061,0.1479398161,1061,0.1372679174,1061,77.75466156,1061,68.92295837,
1060,69.80690002,1060,0.1473403871,1060,0.1294601709,1060,0.1450964957,1060,77.72213745,1060,68.90850067,
1059,69.79884338,1059,0.1396643966,1059,0.1438964903,1059,0.1328906715,1059,77.74051666,1059,68.92713928,
1058,69.79724121,1058,0.1486463994,1058,0.1455726624,1058,0.1504676193,1058,77.72667694,1058,68.92292023,
1057,69.79981995,1057,0.1475864798,1057,0.1368591785,1057,0.154242456,1057,77.73335266,1057,68.89260101,
1056,69.78486633,1056,0.1190611422,1056,0.1346534044,1056,0.1383945197,1056,77.73908997,1056,68.91732788,
1055,69.77150726,1055,0.1255189478,1055,0.1372233778,1055,0.1592487395,1055,77.71125793,1055,68.90641785,
1054,69.78398132,1054,0.1585365832,1054,0.1498645842,1054,0.1486185193,1054,77.7014389,1054,68.88903809,
1053,69.7779007,1053,0.1602309346,1053,0.1273090988,1053,0.1474791467,1053,77.69499207,1053,68.86559296,
1052,69.77597809,1052,0.1510936022,1052,0.1566880047,1052,0.1708739847,1052,77.65426636,1052,68.86600494,
1051,69.76810455,1051,0.1386208385,1051,0.1370129585,1051,0.1463542432,1051,77.66439056,1051,68.86264801,
1050,69.75897217,1050,0.1511211097,1050,0.1274664402,1050,0.154853642,1050,77.65201569,1050,68.82311249,
1049,69.77030182,1049,0.1559749395,1049,0.1414306611,1049,0.1498751491,1049,77.62890625,1049,68.79988098,
1048,69.76490784,1048,0.1605982631,1048,0.1511335075,1048,0.1487731189,1048,77.61008453,1048,68.81006622,
1047,69.758255,1047,0.1376351863,1047,0.13844046,1047,0.1479599625,1047,77.61569214,1047,68.78311157,
1046,69.75559998,1046,0.1498998702,1046,0.1331542432,1046,0.152112633,1046,77.60891724,1046,68.7871933,
1045,69.76114655,1045,0.166269958,1045,0.1474006623,1045,0.1628983468,1045,77.60259247,1045,68.77423859,
1044,69.7460556,1044,0.1465427876,1044,0.1391981095,1044,0.1580598652,1044,77.60493469,1044,68.79944611,
1043,69.74058533,1043,0.1404570192,1043,0.1550641209,1043,0.1704361886,1043,77.60650635,1043,68.78980255,
1042,69.72958374,1042,0.155541122,1042,0.1500467509,1042,0.1417433023,1042,77.5925293,1042,68.79459381,
1041,69.73461914,1041,0.1447373778,1041,0.1548546851,1041,0.1529216468,1041,77.57775116,1041,68.78549957,
1040,69.72618103,1040,0.1511091888,1040,0.1502579898,1040,0.1666307151,1040,77.55188751,1040,68.73310089,
1039,69.72096252,1039,0.1512287408,1039,0.1530014277,1039,0.1527183652,1039,77.52502441,1039,68.70306396,
1038,69.72233582,1038,0.1309830397,1038,0.1329868138,1038,0.153784588,1038,77.44815063,1038,68.65509033,
1037,69.70212555,1037,0.1738951951,1037,0.1517495513,1037,0.14987652,1037,77.43668365,1037,68.63639832,
1036,69.69091797,1036,0.1569013149,1036,0.1430424303,1036,0.1870684922,1036,77.30581665,1036,68.55942535,
1035,69.70426178,1035,0.14909859,1035,0.1305670887,1035,0.1381088048,1035,77.1804657,1035,68.43412781,
1034,69.68463135,1034,0.170225203,1034,0.1448467821,1034,0.165540114,1034,77.01746368,1034,68.26969147,
1033,69.69551086,1033,0.1355663985,1033,0.1460187286,1033,0.1645398587,1033,76.73163605,1033,67.97849274,
1032,69.69864655,1032,0.1551472843,1032,0.1357619166,1032,0.1513392478,1032,76.39855194,1032,67.68491364,
1031,69.69212341,1031,0.1566201746,1031,0.1342082918,1031,0.1730604768,1031,76.08943176,1031,67.43389893,
1030,69.68828583,1030,0.1732678562,1030,0.1411946267,1030,0.1757287979,1030,75.90207672,1030,67.26200104,
1029,69.67460632,1029,0.167593956,1029,0.1560322195,1029,0.1799888015,1029,75.85092926,1029,67.22086334,
1028,69.66730499,1028,0.1747249812,1028,0.1423625052,1028,0.1669879109,1028,75.88342285,1028,67.2669754,
1027,69.67292023,1027,0.1439149678,1027,0.1350242049,1027,0.1827615499,1027,75.97805023,1027,67.35067749,
1026,69.65369415,1026,0.1462575942,1026,0.1456921548,1026,0.1637886912,1026,76.08932495,1026,67.45952606,
1025,69.64598846,1025,0.1506459862,1025,0.1540313363,1025,0.1640203297,1025,76.24036407,1025,67.54853821,
1024,69.64535522,1024,0.1552397907,1024,0.1519513428,1024,0.1762175113,1024,76.34954834,1024,67.65818024,
1023,69.63315582,1023,0.1645762473,1023,0.149016127,1023,0.1532216221,1023,76.48643494,1023,67.79836273,
1022,69.63208008,1022,0.1465682238,1022,0.1462803483,1022,0.1700288653,1022,76.61030579,1022,67.91492462,
1021,69.6455307,1021,0.1606255621,1021,0.1780082881,1021,0.1597658247,1021,76.75604248,1021,68.00202179,
1020,69.6102066,1020,0.1604545861,1020,0.1401246935,1020,0.1664094329,1020,76.90228271,1020,68.18362427,
1019,69.62302399,1019,0.1619293988,1019,0.1382231563,1019,0.1722852737,1019,76.99088287,1019,68.23802948,
1018,69.61669922,1018,0.1418338716,1018,0.1306878775,1018,0.1454840451,1018,77.05310822,1018,68.2904129,
1017,69.59116364,1017,0.162696749,1017,0.1418840587,1017,0.1629321724,1017,77.12770081,1017,68.33334351,
1016,69.60097504,1016,0.1508751065,1016,0.1444911063,1016,0.1520003974,1016,77.10665131,1016,68.3708725,
1015,69.58778381,1015,0.1538322717,1015,0.1531781107,1015,0.1483760029,1015,77.11159515,1015,68.31627655,
1014,69.58959961,1014,0.1498002708,1014,0.146059826,1014,0.1514656097,1014,77.08589172,1014,68.28835297,
1013,69.56660461,1013,0.1561631262,1013,0.140795365,1013,0.1548105031,1013,77.09410858,1013,68.25498199,
1012,69.57084656,1012,0.1733373553,1012,0.1319098324,1012,0.1716131866,1012,77.01733398,1012,68.27825928,
1011,69.55059814,1011,0.1651758254,1011,0.1392177492,1011,0.1690449715,1011,76.97369385,1011,68.21925354,
1010,69.53878784,1010,0.1528518796,1010,0.1390769333,1010,0.1575603336,1010,76.92179871,1010,68.17313385,
1009,69.53472137,1009,0.1511628926,1009,0.144512549,1009,0.1615476608,1009,76.87792969,1009,68.11071014,
1008,69.54281616,1008,0.1497557908,1008,0.1563245505,1008,0.1676676869,1008,76.78773499,1008,68.03740692,
1007,69.52818298,1007,0.1515568942,1007,0.1300420612,1007,0.1594274789,1007,76.71101379,1007,67.96064758,
1006,69.52574921,1006,0.148512885,1006,0.1484496593,1006,0.1776153743,1006,76.67929077,1006,67.93056488,
1005,69.50653076,1005,0.1555747241,1005,0.14110066,1005,0.1526903212,1005,76.66459656,1005,67.9148941,
1004,69.48178101,1004,0.1757899374,1004,0.1444711387,1004,0.1905606538,1004,76.651474,1004,67.89452362,
1003,69.48161316,1003,0.1718650758,1003,0.135328874,1003,0.1816016585,1003,76.61849976,1003,67.90290833,
1002,69.48074341,1002,0.1478735507,1002,0.1450373679,1002,0.1716097295,1002,76.62447357,1002,67.86061859,
1001,69.47763824,1001,0.1734012514,1001,0.1416240036,1001,0.1599491239,1001,76.56921387,1001,67.83053589,
1000,69.45681763,1000,0.1703156233,1000,0.1713137329,1000,0.156363219,1000,76.56641388,1000,67.8394165,
999,69.45272064,999,0.1667450219,999,0.1735151708,999,0.1805430502,999,76.55954742,999,67.84042358,
998,69.4396286,998,0.1541725099,998,0.1361457109,998,0.1697474569,998,76.55739594,998,67.84315491,
997,69.43123627,997,0.1671426296,997,0.1571995467,997,0.1807759106,997,76.60560608,997,67.87255096,
996,69.40912628,996,0.1372229159,996,0.1376819164,996,0.1658894867,996,76.67687988,996,67.93390656,
995,69.39994812,995,0.1476972401,995,0.1159547344,995,0.1672058553,995,76.66495514,995,67.94905853,
994,69.39431,994,0.1526571512,994,0.1278880835,994,0.1954116672,994,76.69771576,994,67.96573639,
993,69.38269043,993,0.1581026316,993,0.1345134079,993,0.1547381282,993,76.70995331,993,67.97988129,
992,69.38195801,992,0.1730849892,992,0.124805063,992,0.1388565451,992,76.68997955,992,67.94249725,
991,69.36810303,991,0.1572917998,991,0.1548367888,991,0.184888795,991,76.68816376,991,67.95614624,
990,69.34893799,990,0.1702658683,990,0.1381257176,990,0.182759583,990,76.6824646,990,67.94072723,
989,69.3345108,989,0.1558685601,989,0.1578505486,989,0.1712312549,989,76.65498352,989,67.91853333,
988,69.31840515,988,0.1586958468,988,0.150628686,988,0.1730886698,988,76.62018585,988,67.90185547,
987,69.31063843,987,0.1734375656,987,0.1493991017,987,0.1624410003,987,76.54759979,987,67.81718445,
986,69.31174469,986,0.1627609134,986,0.1557032317,986,0.1537828594,986,76.45012665,986,67.75122833,
985,69.29603577,985,0.1655154675,985,0.1480352134,985,0.174116835,985,76.37554169,985,67.67378235,
984,69.28409576,984,0.1652697027,984,0.1383544356,984,0.1702324301,984,76.31668091,984,67.60346222,
983,69.26399231,983,0.1625703573,983,0.1475756168,983,0.1719550788,983,76.23962402,983,67.54563141,
982,69.25476837,982,0.1685408801,982,0.1354389936,982,0.1752932966,982,76.14901733,982,67.44799805,
981,69.25043488,981,0.1607792974,981,0.1377383322,981,0.172776863,981,76.05757904,981,67.38550568,
980,69.23044586,980,0.1916810572,980,0.1356616616,980,0.1892123967,980,76.01256561,980,67.33557892,
979,69.20455933,979,0.1907166988,979,0.1298605055,979,0.1834898293,979,76.02259064,979,67.35462189,
978,69.1973877,978,0.1685231179,978,0.1431338787,978,0.1877094805,978,76.05081177,978,67.37744904,
977,69.18941498,977,0.1741429567,977,0.1593629867,977,0.1765241474,977,76.10158539,977,67.41538239,
976,69.16579437,976,0.1813225746,976,0.1442862749,976,0.1567412317,976,76.10827637,976,67.44239807,
975,69.15788269,975,0.1940170079,975,0.1495401263,975,0.1748655289,975,75.97914124,975,67.30350494,
974,69.14099121,974,0.1962815672,974,0.1642087549,974,0.1904543191,974,75.54985809,974,66.92749023,
973,69.11352539,973,0.1935831159,973,0.15586631,973,0.1863684058,973,74.67250824,973,66.13872528,
972,69.10578156,972,0.2180818915,972,0.1374234259,972,0.2070695907,972,73.47097015,972,65.04359436,
971,69.08011627,971,0.2141009718,971,0.1444204003,971,0.2237442434,971,72.18182373,971,63.93528748,
970,69.07801819,970,0.2327865213,970,0.1642992496,970,0.2244252414,970,71.01863861,970,62.9299469,
969,69.05327606,969,0.2218419015,969,0.1455036998,969,0.2334219366,969,70.30400848,969,62.32069016,
968,69.03027344,968,0.2461944222,968,0.1667647809,968,0.2432479709,968,70.42777252,968,62.43259811,
967,69.01364136,967,0.2236395329,967,0.1408930123,967,0.2235678732,967,71.12220764,967,63.01708984,
966,68.98965454,966,0.233746022,966,0.1649962515,966,0.212956354,966,72.04288483,966,63.87641907,
965,68.98181152,965,0.2318053693,965,0.1703291833,965,0.2303210795,965,72.99575043,965,64.71212006,
964,68.96868896,964,0.2302498966,964,0.156398043,964,0.2140178978,964,73.85168457,964,65.4546051,
963,68.9597168,963,0.2403752208,963,0.1561954319,963,0.2016782761,963,74.38542175,963,65.91956329,
962,68.92418671,962,0.2475355119,962,0.1778559387,962,0.20832026,962,74.63887024,962,66.12275696,
961,68.89209747,961,0.2435910553,961,0.1606637239,961,0.1932985783,961,74.64146423,961,66.14165497,
960,68.86721039,960,0.2437198311,960,0.173200205,960,0.1963676661,960,74.5954895,960,66.09736633,
959,68.84723663,959,0.2632865608,959,0.1642625481,959,0.2060131431,959,74.52388763,959,66.02138519,
958,68.82435608,958,0.2491461784,958,0.1653705239,958,0.199873507,958,74.46960449,958,65.98264313,
957,68.79576874,957,0.2730865479,957,0.1471081674,957,0.2254241854,957,74.47464752,957,65.98278046,
956,68.77510071,956,0.2745774388,956,0.1886496097,956,0.221749559,956,74.45184326,956,65.94161987,
955,68.759758,955,0.281039536,955,0.1889490932,955,0.2100780308,955,74.43750763,955,65.95032501,
954,68.72175598,954,0.2918385863,954,0.1865056753,954,0.2123200148,954,74.42111206,954,65.93540955,
953,68.69135284,953,0.3062007129,953,0.1977842301,953,0.2154303491,953,74.37032318,953,65.89639282,
952,68.65709686,952,0.3337689638,952,0.1876998246,952,0.2217440456,952,74.27646637,952,65.81198883,
951,68.63188934,951,0.3786439002,951,0.1942644417,951,0.2199508548,951,74.11708832,951,65.66438293,
950,68.59980774,950,0.3832880259,950,0.2172874808,950,0.2227537781,950,73.85251617,950,65.44319153,
949,68.57086182,949,0.3999820948,949,0.2105367333,949,0.2260343432,949,73.50442505,949,65.11672211,
948,68.55888367,948,0.423312515,948,0.2027360797,948,0.2360758334,948,72.95446014,948,64.63098907,
947,68.50705719,947,0.4777651727,947,0.2190414816,947,0.2511760592,947,72.24507904,947,63.9961853,
946,68.48833466,946,0.5123962164,946,0.202333644,946,0.2631120086,946,71.27087402,946,63.11079407,
945,68.45949554,945,0.5566959977,945,0.215817824,945,0.256315887,945,70.13869476,945,62.12717438,
944,68.41120148,944,0.5885565877,944,0.2151540071,944,0.2672057748,944,68.93618774,944,61.05662537,
943,68.38468933,943,0.6730517745,943,0.2131408304,943,0.2721480131,943,67.77336884,943,60.01937866,
942,68.36090088,942,0.7408373356,942,0.2183411568,942,0.2756427526,942,66.82628632,942,59.19411087,
941,68.32162476,941,0.8051468134,941,0.22487773,941,0.2893559933,941,66.18749237,941,58.6546669,
940,68.26590729,940,0.8975447416,940,0.2311995775,940,0.2767543495,940,65.95069885,940,58.45119476,
939,68.23085022,939,1.015831113,939,0.2406983227,939,0.2938736379,939,66.04659271,939,58.5052948,
938,68.20625305,938,1.15185833,938,0.2668441832,938,0.2968505621,938,66.35260773,938,58.79203033,
937,68.14943695,937,1.354638577,937,0.2732837498,937,0.3122513592,937,66.87229919,937,59.26543045,
936,68.11950684,936,1.585594773,936,0.3002668023,936,0.3104031682,936,67.46691132,936,59.7817421,
935,68.06332397,935,1.879437089,935,0.3159741759,935,0.3207624555,935,68.11458588,935,60.34511948,
934,68.03216553,934,2.260119915,934,0.3513715565,934,0.344018966,934,68.65151215,934,60.8252182,
933,67.99012756,933,2.789553165,933,0.4050771594,933,0.3737739325,933,69.0605011,933,61.19143295,
932,67.95708466,932,3.423367739,932,0.4242017865,932,0.3434117734,932,69.37773132,932,61.48480606,
931,67.9034729,931,4.347792149,931,0.4826447964,931,0.3772163391,931,69.67166901,931,61.72697449,
930,67.86867523,930,5.542385578,930,0.5473042727,930,0.3955055475,930,69.87988281,930,61.90499115,
929,67.80722046,929,7.291287422,929,0.627758801,929,0.4118168652,929,70.15657806,929,62.14057922,
928,67.75952911,928,9.696633339,928,0.7113168836,928,0.4469911158,928,70.46538544,928,62.41893768,
927,67.74209595,927,13.03013706,927,0.8279839754,927,0.4745656252,927,70.80191803,927,62.70827484,
926,67.66016388,926,17.51643181,926,0.9986671805,926,0.5314778686,926,71.19786072,926,63.06599426,
925,67.60882568,925,23.47119331,925,1.184753537,925,0.6129565239,925,71.6723175,925,63.47232056,
924,67.56742859,924,30.49710655,924,1.415164351,924,0.6784519553,924,72.07813263,924,63.84698868,
923,67.5109787,923,37.69956207,923,1.745105505,923,0.7810661197,923,72.4618454,923,64.18897247,
922,67.43307495,922,45.46336365,922,2.099809885,922,0.8862248659,922,72.745224,922,64.44037628,
921,67.38655853,921,52.403862,921,2.578801155,921,0.9945086241,921,72.85193634,921,64.50769043,
920,67.32737732,920,58.0676384,920,3.180124998,920,1.156247735,920,72.82215118,920,64.48288727,
919,67.2774353,919,62.21604919,919,4.037091732,919,1.355033994,919,72.64884949,919,64.34838867,
918,67.19797516,918,64.11676025,918,5.304524422,918,1.657360554,918,72.47790527,918,64.1574707,
917,67.1127243,917,64.00793457,917,7.104781151,917,2.064931631,917,72.29277039,917,63.98513794,
916,67.04912567,916,62.17227173,916,9.690850258,916,2.640550852,916,72.14922333,916,63.85806274,
915,66.99510956,915,59.05554199,915,13.27952003,915,3.51563406,915,72.10794067,915,63.8371582,
914,66.90408325,914,55.30228043,914,17.84244537,914,4.72795105,914,72.21794128,914,63.94247437,
913,66.83416748,913,51.04633713,913,23.56916428,913,6.515764236,913,72.45128632,913,64.13963318,
912,66.76459503,912,46.8446579,912,30.02750206,912,8.870439529,912,72.82791901,912,64.46567535,
911,66.67533875,911,43.12304688,911,36.66626358,911,11.7999754,911,73.26105499,911,64.86782074,
910,66.60321045,910,39.99798584,910,43.15266418,910,15.32915688,910,73.69458008,910,65.24143982,
909,66.49948883,909,37.56921005,909,49.0165062,909,19.35503197,909,74.15140533,909,65.66031647,
908,66.4341507,908,35.77311707,908,53.73315048,908,23.68573952,908,74.57633972,908,66.01607513,
907,66.32460022,907,34.59950638,907,57.00727844,907,28.07248306,907,74.97046661,907,66.33044434,
906,66.21086884,906,33.90373611,906,58.70968628,906,32.40951157,906,75.30793762,906,66.63978577,
905,66.13144684,905,33.7219429,905,58.72529221,905,36.20299149,905,75.5435791,905,66.84511566,
904,66.01077271,904,33.97106934,904,57.47154236,904,39.1368103,904,75.75543976,904,67.01261139,
903,65.91529083,903,34.59495163,903,55.21877289,903,41.35735703,903,75.91156006,903,67.13947296,
902,65.78903198,902,35.63955688,902,52.33674622,902,42.67574692,902,76.05854034,902,67.29819489,
901,65.66551208,901,37.03139877,901,49.12268829,901,43.04826355,901,76.15481567,901,67.37163544,
900,65.54785156,900,38.95815277,900,45.73323059,900,42.64660645,900,76.26831055,900,67.44837952,
899,65.43995667,899,41.22809219,899,42.63315582,899,41.56633759,899,76.3327713,899,67.53188324,
898,65.29130554,898,43.89975357,898,40.0935936,898,40.04009247,898,76.45672607,898,67.61676025,
897,65.1574707,897,46.95717239,897,38.03731918,897,38.20198059,897,76.49338531,897,67.68527222,
896,65.01851654,896,50.4136734,896,36.59046173,896,36.25986099,896,76.57365417,896,67.7087326,
895,64.88291168,895,54.14016724,895,35.68859863,895,34.40140915,895,76.64155579,895,67.78206635,
894,64.73744965,894,58.17181015,894,35.32284927,894,32.63160706,894,76.67602539,894,67.82009125,
893,64.59350586,893,62.35301971,893,35.44654083,893,31.11683464,893,76.71479797,893,67.88478851,
892,64.4324646,892,66.46143341,892,36.02960968,892,30.00851822,892,76.78930664,892,67.92201996,
891,64.27275848,891,70.44569397,891,37.05185318,891,29.23571777,891,76.79766083,891,67.93144226,
890,64.13367462,890,74.11209106,890,38.43774033,890,28.84260941,890,76.81472015,890,67.92930603,
889,63.95025253,889,77.51660156,889,40.2722435,889,28.83545494,889,76.91455078,889,67.99554443,
888,63.76892853,888,80.34352112,888,42.46834946,888,29.19734383,888,76.90710449,888,68.01506042,
887,63.59468079,887,82.57326508,887,45.01908112,887,29.95657539,887,76.91998291,887,68.02920532,
886,63.41191101,886,84.18131256,886,47.87069702,886,31.03757858,886,76.96501923,886,68.03795624,
885,63.22048187,885,84.97364807,885,50.85155869,885,32.40374756,885,76.99742889,885,68.05251312,
884,63.02665329,884,85.15258026,884,54.04421616,884,34.07382584,884,76.99632263,884,68.09711456,
883,62.84894943,883,84.70233154,883,57.32827759,883,35.98058319,883,77.03292847,883,68.07800293,
882,62.65446091,882,83.69654083,882,60.45191956,882,38.04167938,882,77.0263443,882,68.13137817,
881,62.44990158,881,82.19963837,881,63.59711456,881,40.39857864,881,77.08058929,881,68.17395782,
880,62.25405884,880,80.30149078,880,66.38349152,880,42.76843262,880,77.09387207,880,68.14610291,
879,62.02319717,879,78.19593811,879,68.84732056,879,45.16362762,879,77.12572479,879,68.17327118,
878,61.77947998,878,75.95854187,878,70.90542603,878,47.46723938,878,77.18917847,878,68.23249817,
877,61.57038116,877,73.67137909,877,72.48448944,877,49.68079758,877,77.21055603,877,68.27253723,
876,61.36491394,876,71.3589859,876,73.5349884,876,51.68754959,876,77.21833801,876,68.24656677,
875,61.13878632,875,69.13814545,875,74.12017059,875,53.48468399,875,77.28499603,875,68.29294586,
874,60.93264771,874,67.10986328,874,74.16633606,874,54.99305725,874,77.27714539,874,68.30290222,
873,60.67456055,873,65.36671448,873,73.79190063,873,56.09907532,873,77.30982971,873,68.30345154,
872,60.43571091,872,63.84770966,872,72.98788452,872,56.88112259,872,77.33060455,872,68.32575226,
871,60.21401978,871,62.65611649,871,71.88642883,871,57.30990219,871,77.32501984,871,68.33335114,
870,59.9667244,870,61.76469803,870,70.508461,870,57.40858841,870,77.33185577,870,68.33414459,
869,59.74283218,869,61.14735413,869,68.96419525,869,57.22393799,869,77.37669373,869,68.36343384,
868,59.50210571,868,60.82549286,868,67.26055908,868,56.72330093,868,77.36647034,868,68.36602783,
867,59.24271774,867,60.8998642,867,65.52938843,867,55.98265076,867,77.35428619,867,68.35020447,
866,58.96325684,866,61.26486588,866,63.95711136,866,55.09349823,866,77.39841461,866,68.37453461,
865,58.72847366,865,61.90838242,865,62.38516617,865,54.07598114,865,77.44013214,865,68.36507416,
864,58.48870087,864,62.80041885,864,60.9332428,864,52.90446472,864,77.39103699,864,68.35697937,
863,58.23604584,863,63.94400787,863,59.72666931,863,51.74295425,863,77.43353271,863,68.36663818,
862,58.01332474,862,65.35188293,862,58.69975662,862,50.57562637,862,77.41455078,862,68.37729645,
861,57.71115875,861,66.96796417,861,57.96936035,861,49.50507736,861,77.39712524,861,68.34204102,
860,57.48609161,860,68.63521576,860,57.47678375,860,48.50662613,860,77.37644196,860,68.3536911,
859,57.26335144,859,70.4243927,859,57.24588013,859,47.66135406,859,77.35803986,859,68.32152557,
858,56.95897293,858,72.27977753,858,57.29104996,858,46.99317932,858,77.41830444,858,68.35025024,
857,56.75062561,857,74.15249634,857,57.6052742,857,46.47279358,857,77.39212799,857,68.3318634,
856,56.49420166,856,75.99627686,856,58.2027359,856,46.13082886,856,77.43663025,856,68.32375336,
855,56.2522583,855,77.77471924,855,59.04305649,855,46.0232048,855,77.40702057,855,68.32926941,
854,55.99682999,854,79.29515076,854,60.07221222,854,46.07331085,854,77.38748932,854,68.27548981,
853,55.74811172,853,80.63977051,853,61.28887558,853,46.35050583,853,77.36339569,853,68.30891418,
852,55.54101563,852,81.76361084,852,62.6292572,852,46.79395294,852,77.36008453,852,68.30594635,
851,55.28172684,851,82.60408783,851,64.0938797,851,47.39930725,851,77.34785461,851,68.24628448,
850,55.05688095,850,83.25944519,850,65.61495972,850,48.19806671,850,77.34145355,850,68.24702454,
849,54.78836441,849,83.65449524,849,67.32891083,849,49.15063858,849,77.41242981,849,68.30702209,
848,54.61749268,848,83.65119934,848,68.84338379,848,50.1282692,848,77.37171936,848,68.25317383,
847,54.37355042,847,83.39174652,847,70.24964905,847,51.13783646,847,77.34362793,847,68.22319794,
846,54.17406082,846,82.97396851,846,71.64648438,846,52.22471237,846,77.30006409,846,68.20217133,
845,53.92153931,845,82.24212646,845,72.88050079,845,53.35912704,845,77.33997345,845,68.21134186,
844,53.74618149,844,81.47150421,844,74.02677917,844,54.44412994,844,77.37063599,844,68.2307663,
843,53.52041626,843,80.34544373,843,74.93383026,843,55.4629097,843,77.29782867,843,68.18302917,
842,53.34585953,842,79.12261963,842,75.63871765,842,56.41775131,842,77.28191376,842,68.18571472,
841,53.1322403,841,77.9125061,841,76.08553314,841,57.24760818,841,77.37184143,841,68.20858765,
840,52.99146652,840,76.59346771,840,76.3489151,840,57.93572617,840,77.31110382,840,68.15679169,
839,52.75083923,839,75.2722702,839,76.3338089,839,58.4943428,839,77.29208374,839,68.16075134,
838,52.56844711,838,74.03979492,838,76.16644287,838,58.94504166,838,77.30647278,838,68.16672516,
837,52.40246201,837,72.82852936,837,75.81915283,837,59.23245621,837,77.33332062,837,68.18225098,
836,52.2258873,836,71.62326813,836,75.20290375,836,59.26753998,836,77.2366333,836,68.06994629,
835,52.04405212,835,70.75744629,835,74.58050537,835,59.306633,835,77.3795929,835,68.17076111,
834,51.86943436,834,69.8613739,834,73.74300385,834,59.00880814,834,77.29069519,834,68.10392761,
833,51.7081871,833,69.21638489,833,72.8690033,833,58.67825317,833,77.30782318,833,68.1318512,
832,51.5789032,832,68.72112274,832,71.90105438,832,58.25354004,832,77.28729248,832,68.08792114,
831,51.39752579,831,68.39257813,831,70.95101929,831,57.74742889,831,77.2819519,831,68.14489746,
830,51.29061508,830,68.28199005,830,69.9789505,830,57.14115524,830,77.29424286,830,68.12614441,
829,51.09147263,829,68.31151581,829,68.96725464,829,56.3813324,829,77.24445343,829,68.08127594,
828,50.93140411,828,68.61908722,828,68.17838287,828,55.75389862,828,77.27770233,828,68.10861206,
827,50.79753494,827,69.02605438,827,67.38072968,827,55.05620956,827,77.25312805,827,68.10345459,
826,50.64910507,826,69.57558441,826,66.72393799,826,54.39499664,826,77.28023529,826,68.08609009,
825,50.50495148,825,70.1798172,825,66.17464447,825,53.69488144,825,77.22545624,825,68.03178406,
824,50.37199402,824,71.04837036,824,65.78370667,824,53.10974884,824,77.29370117,824,68.11993408,
823,50.16763687,823,71.95305634,823,65.52529144,823,52.57440186,823,77.28020477,823,68.10300446,
822,50.06676865,822,72.83988953,822,65.35228729,822,52.14911652,822,77.22162628,822,68.05178833,
821,49.93557358,821,73.80249023,821,65.36296844,821,51.74765015,821,77.21824646,821,68.05286407,
820,49.77872086,820,74.77630615,820,65.55690765,820,51.50529861,820,77.26953888,820,68.07897949,
819,49.61310196,819,75.71258545,819,65.80593872,819,51.34948349,819,77.21006012,819,68.03129578,
818,49.47745895,818,76.68540192,818,66.26334381,818,51.3051796,818,77.2800293,818,68.04914856,
817,49.26340103,817,77.49729156,817,66.66690826,817,51.30450058,817,77.19898224,817,68.00796509,
816,49.09266663,816,78.30166626,816,67.25669861,816,51.49013519,816,77.24104309,816,68.04103851,
815,48.92438126,815,78.96233368,815,67.80952454,815,51.64587402,815,77.21458435,815,68.01660919,
814,48.74508286,814,79.50688934,814,68.45274353,814,51.95074081,814,77.20974731,814,68.01847076,
813,48.51938248,813,79.94522858,813,69.05321503,813,52.29181671,813,77.17997742,813,67.95696259,
812,48.37205124,812,80.28614807,812,69.68227386,812,52.70191574,812,77.18479919,812,67.98950195,
811,48.07705688,811,80.45714569,811,70.29146576,811,53.1082077,811,77.16461945,811,67.97859955,
810,47.86776733,810,80.55065155,810,70.80554199,810,53.57213593,810,77.18090057,810,67.93307495,
809,47.63572693,809,80.52122498,809,71.28266144,809,53.97251129,809,77.13113403,809,67.9028244,
808,47.3935318,808,80.37631989,808,71.63959503,808,54.42125702,808,77.13644409,808,67.94446564,
807,47.24988556,807,80.17273712,807,72.02059937,807,54.87515259,807,77.13352966,807,67.93927002,
806,47.1937294,806,79.87069702,806,72.2769165,806,55.21131134,806,77.14392853,806,67.93287659,
805,47.12981415,805,79.47675323,805,72.42870331,805,55.55673218,805,77.12689972,805,67.9081955,
804,47.0496521,804,79.02323151,804,72.51211548,804,55.85072708,804,77.10631561,804,67.82215118,
803,46.96327972,803,78.54434967,803,72.50399017,803,56.12251282,803,77.07836914,803,67.82804871,
802,46.87569809,802,77.98000336,802,72.37519836,802,56.30240631,802,77.07350922,802,67.83364105,
801,46.77733612,801,77.43357849,801,72.13931274,801,56.42149353,801,77.09226227,801,67.80373383,
800,46.67264938,800,76.89012146,800,71.865242,800,56.50796127,800,77.04541016,800,67.79228973,
799,64.8073349,,,,,,,,,,,

Baseline 100%T,
Baseline 100%T
Collection Time: 5/22/2026 2:56:47 PM
Operator Name  :
Scan Version 6.2.0.1588
Parameter List :
Instrument  Cary 7000
Instrument Version  2.24
Method Log     :
Method Name    : C:\Users\AgilentUMS\Desktop\DATA\Aidas\T_800-1200.MSW
Date/Time stamp: 5/22/2026 12:38:27 PM
Method Modifications:
X Start nm Changed: 5/22/2026 12:37:19 PM, Old:800.000, New:1200.000
X Stop nm Changed: 5/22/2026 12:37:19 PM, Old:200.000, New:800.000
UVVIS Scan Rate nm Changed: 5/22/2026 12:37:19 PM, Old:  602.007, New:  600.000
NIR Scan Rate nm Changed: 5/22/2026 12:37:19 PM, Old:  602.007, New:  600.000
Y mode Changed: 5/22/2026 12:37:19 PM, Old:Abs, New:%T
Y min Changed: 5/22/2026 12:37:19 PM, Old:     0.00, New:    -5.00
Y max Changed: 5/22/2026 12:37:19 PM, Old:     1.00, New:   105.00
SBW Changed: 5/22/2026 12:37:19 PM, Old:2.000, New:1.000
NIR slit width Changed: 5/22/2026 12:37:19 PM, Old:2.000, New:1.000
Common Slit Width Changed: 5/22/2026 12:37:19 PM, Old:2.000, New:1.000
Slit Height Changed: 5/22/2026 12:37:19 PM, Old:Full, New:Reduced
Baseline Correction Changed: 5/22/2026 12:37:19 PM, Old:0, New:1
Sipper Type Changed: 5/22/2026 12:37:19 PM, Old:Internal RSA, New:External sipper
Slit Height Changed: 5/22/2026 12:37:22 PM, Old:Full, New:Reduced
Saved as C:\Users\AgilentUMS\Desktop\DATA\Aidas\T_800-1200.MSW
Opened C:\Users\AgilentUMS\Desktop\DATA\Aidas\T_800-1200.MSW
End Method Modifications
<Current Wavelength> , 799.000
<SBW (nm)> , 1.00
<Energy> , 181.97
<Slit Height> , Reduced

5%,
5%
Collection Time: 5/22/2026 3:04:08 PM
Operator Name  :
Scan Version 6.2.0.1588
Parameter List :
Instrument  Cary 7000
Instrument Version  2.24
Method Log     :
Method Name    : C:\Users\AgilentUMS\Desktop\DATA\Aidas\T_800-1200.MSW
Date/Time stamp: 5/22/2026 12:38:27 PM
Method Modifications:
X Start nm Changed: 5/22/2026 12:37:19 PM, Old:800.000, New:1200.000
X Stop nm Changed: 5/22/2026 12:37:19 PM, Old:200.000, New:800.000
UVVIS Scan Rate nm Changed: 5/22/2026 12:37:19 PM, Old:  602.007, New:  600.000
NIR Scan Rate nm Changed: 5/22/2026 12:37:19 PM, Old:  602.007, New:  600.000
Y mode Changed: 5/22/2026 12:37:19 PM, Old:Abs, New:%T
Y min Changed: 5/22/2026 12:37:19 PM, Old:     0.00, New:    -5.00
Y max Changed: 5/22/2026 12:37:19 PM, Old:     1.00, New:   105.00
SBW Changed: 5/22/2026 12:37:19 PM, Old:2.000, New:1.000
NIR slit width Changed: 5/22/2026 12:37:19 PM, Old:2.000, New:1.000
Common Slit Width Changed: 5/22/2026 12:37:19 PM, Old:2.000, New:1.000
Slit Height Changed: 5/22/2026 12:37:19 PM, Old:Full, New:Reduced
Baseline Correction Changed: 5/22/2026 12:37:19 PM, Old:0, New:1
Sipper Type Changed: 5/22/2026 12:37:19 PM, Old:Internal RSA, New:External sipper
Slit Height Changed: 5/22/2026 12:37:22 PM, Old:Full, New:Reduced
Saved as C:\Users\AgilentUMS\Desktop\DATA\Aidas\T_800-1200.MSWOpened C:\Users\AgilentUMS\Desktop\DATA\Aidas\T_800-1200.MSW
Saved as C:\Users\AgilentUMS\Desktop\DATA\Aidas\YbYAG_T_05.22
End Method Modifications
<Current Wavelength> , 800.000
<SBW (nm)> , 1.00
<Energy> , 3.00
<Slit Height> , Reduced

10%,
10%
Collection Time: 5/22/2026 3:07:04 PM
Operator Name  :
Scan Version 6.2.0.1588
Parameter List :
Instrument  Cary 7000
Instrument Version  2.24
Method Log     :
Method Name    : C:\Users\AgilentUMS\Desktop\DATA\Aidas\T_800-1200.MSW
Date/Time stamp: 5/22/2026 12:38:27 PM
Method Modifications:
X Start nm Changed: 5/22/2026 12:37:19 PM, Old:800.000, New:1200.000
X Stop nm Changed: 5/22/2026 12:37:19 PM, Old:200.000, New:800.000
UVVIS Scan Rate nm Changed: 5/22/2026 12:37:19 PM, Old:  602.007, New:  600.000
NIR Scan Rate nm Changed: 5/22/2026 12:37:19 PM, Old:  602.007, New:  600.000
Y mode Changed: 5/22/2026 12:37:19 PM, Old:Abs, New:%T
Y min Changed: 5/22/2026 12:37:19 PM, Old:     0.00, New:    -5.00
Y max Changed: 5/22/2026 12:37:19 PM, Old:     1.00, New:   105.00
SBW Changed: 5/22/2026 12:37:19 PM, Old:2.000, New:1.000
NIR slit width Changed: 5/22/2026 12:37:19 PM, Old:2.000, New:1.000
Common Slit Width Changed: 5/22/2026 12:37:19 PM, Old:2.000, New:1.000
Slit Height Changed: 5/22/2026 12:37:19 PM, Old:Full, New:Reduced
Baseline Correction Changed: 5/22/2026 12:37:19 PM, Old:0, New:1
Sipper Type Changed: 5/22/2026 12:37:19 PM, Old:Internal RSA, New:External sipper
Slit Height Changed: 5/22/2026 12:37:22 PM, Old:Full, New:Reduced
Saved as C:\Users\AgilentUMS\Desktop\DATA\Aidas\T_800-1200.MSWOpened C:\Users\AgilentUMS\Desktop\DATA\Aidas\T_800-1200.MSW
Saved as C:\Users\AgilentUMS\Desktop\DATA\Aidas\YbYAG_T_05.22
End Method Modifications
<Current Wavelength> , 800.000
<SBW (nm)> , 1.00
<Energy> , 3.00
<Slit Height> , Reduced

15%,
15%
Collection Time: 5/22/2026 3:10:29 PM
Operator Name  :
Scan Version 6.2.0.1588
Parameter List :
Instrument  Cary 7000
Instrument Version  2.24
Method Log     :
Method Name    : C:\Users\AgilentUMS\Desktop\DATA\Aidas\T_800-1200.MSW
Date/Time stamp: 5/22/2026 12:38:27 PM
Method Modifications:
X Start nm Changed: 5/22/2026 12:37:19 PM, Old:800.000, New:1200.000
X Stop nm Changed: 5/22/2026 12:37:19 PM, Old:200.000, New:800.000
UVVIS Scan Rate nm Changed: 5/22/2026 12:37:19 PM, Old:  602.007, New:  600.000
NIR Scan Rate nm Changed: 5/22/2026 12:37:19 PM, Old:  602.007, New:  600.000
Y mode Changed: 5/22/2026 12:37:19 PM, Old:Abs, New:%T
Y min Changed: 5/22/2026 12:37:19 PM, Old:     0.00, New:    -5.00
Y max Changed: 5/22/2026 12:37:19 PM, Old:     1.00, New:   105.00
SBW Changed: 5/22/2026 12:37:19 PM, Old:2.000, New:1.000
NIR slit width Changed: 5/22/2026 12:37:19 PM, Old:2.000, New:1.000
Common Slit Width Changed: 5/22/2026 12:37:19 PM, Old:2.000, New:1.000
Slit Height Changed: 5/22/2026 12:37:19 PM, Old:Full, New:Reduced
Baseline Correction Changed: 5/22/2026 12:37:19 PM, Old:0, New:1
Sipper Type Changed: 5/22/2026 12:37:19 PM, Old:Internal RSA, New:External sipper
Slit Height Changed: 5/22/2026 12:37:22 PM, Old:Full, New:Reduced
Saved as C:\Users\AgilentUMS\Desktop\DATA\Aidas\T_800-1200.MSWOpened C:\Users\AgilentUMS\Desktop\DATA\Aidas\T_800-1200.MSW
Saved as C:\Users\AgilentUMS\Desktop\DATA\Aidas\YbYAG_T_05.22
End Method Modifications
<Current Wavelength> , 800.000
<SBW (nm)> , 1.00
<Energy> , 3.00
<Slit Height> , Reduced

B,
B
Collection Time: 5/22/2026 3:15:13 PM
Operator Name  :
Scan Version 6.2.0.1588
Parameter List :
Instrument  Cary 7000
Instrument Version  2.24
Method Log     :
Method Name    : C:\Users\AgilentUMS\Desktop\DATA\Aidas\T_800-1200.MSW
Date/Time stamp: 5/22/2026 12:38:27 PM
Method Modifications:
X Start nm Changed: 5/22/2026 12:37:19 PM, Old:800.000, New:1200.000
X Stop nm Changed: 5/22/2026 12:37:19 PM, Old:200.000, New:800.000
UVVIS Scan Rate nm Changed: 5/22/2026 12:37:19 PM, Old:  602.007, New:  600.000
NIR Scan Rate nm Changed: 5/22/2026 12:37:19 PM, Old:  602.007, New:  600.000
Y mode Changed: 5/22/2026 12:37:19 PM, Old:Abs, New:%T
Y min Changed: 5/22/2026 12:37:19 PM, Old:     0.00, New:    -5.00
Y max Changed: 5/22/2026 12:37:19 PM, Old:     1.00, New:   105.00
SBW Changed: 5/22/2026 12:37:19 PM, Old:2.000, New:1.000
NIR slit width Changed: 5/22/2026 12:37:19 PM, Old:2.000, New:1.000
Common Slit Width Changed: 5/22/2026 12:37:19 PM, Old:2.000, New:1.000
Slit Height Changed: 5/22/2026 12:37:19 PM, Old:Full, New:Reduced
Baseline Correction Changed: 5/22/2026 12:37:19 PM, Old:0, New:1
Sipper Type Changed: 5/22/2026 12:37:19 PM, Old:Internal RSA, New:External sipper
Slit Height Changed: 5/22/2026 12:37:22 PM, Old:Full, New:Reduced
Saved as C:\Users\AgilentUMS\Desktop\DATA\Aidas\T_800-1200.MSWOpened C:\Users\AgilentUMS\Desktop\DATA\Aidas\T_800-1200.MSW
Saved as C:\Users\AgilentUMS\Desktop\DATA\Aidas\YbYAG_T_05.22
End Method Modifications
<Current Wavelength> , 800.000
<SBW (nm)> , 1.00
<Energy> , 3.00
<Slit Height> , Reduced

A,
A
Collection Time: 5/22/2026 3:18:04 PM
Operator Name  :
Scan Version 6.2.0.1588
Parameter List :
Instrument  Cary 7000
Instrument Version  2.24
Method Log     :
Method Name    : C:\Users\AgilentUMS\Desktop\DATA\Aidas\T_800-1200.MSW
Date/Time stamp: 5/22/2026 12:38:27 PM
Method Modifications:
X Start nm Changed: 5/22/2026 12:37:19 PM, Old:800.000, New:1200.000
X Stop nm Changed: 5/22/2026 12:37:19 PM, Old:200.000, New:800.000
UVVIS Scan Rate nm Changed: 5/22/2026 12:37:19 PM, Old:  602.007, New:  600.000
NIR Scan Rate nm Changed: 5/22/2026 12:37:19 PM, Old:  602.007, New:  600.000
Y mode Changed: 5/22/2026 12:37:19 PM, Old:Abs, New:%T
Y min Changed: 5/22/2026 12:37:19 PM, Old:     0.00, New:    -5.00
Y max Changed: 5/22/2026 12:37:19 PM, Old:     1.00, New:   105.00
SBW Changed: 5/22/2026 12:37:19 PM, Old:2.000, New:1.000
NIR slit width Changed: 5/22/2026 12:37:19 PM, Old:2.000, New:1.000
Common Slit Width Changed: 5/22/2026 12:37:19 PM, Old:2.000, New:1.000
Slit Height Changed: 5/22/2026 12:37:19 PM, Old:Full, New:Reduced
Baseline Correction Changed: 5/22/2026 12:37:19 PM, Old:0, New:1
Sipper Type Changed: 5/22/2026 12:37:19 PM, Old:Internal RSA, New:External sipper
Slit Height Changed: 5/22/2026 12:37:22 PM, Old:Full, New:Reduced
Saved as C:\Users\AgilentUMS\Desktop\DATA\Aidas\T_800-1200.MSWOpened C:\Users\AgilentUMS\Desktop\DATA\Aidas\T_800-1200.MSW
Saved as C:\Users\AgilentUMS\Desktop\DATA\Aidas\YbYAG_T_05.22
End Method Modifications
<Current Wavelength> , 800.000
<SBW (nm)> , 1.00
<Energy> , 3.00
<Slit Height> , Reduced

