Long Name,Wavelength,system,PL,Intensity
Units,nm,arb. u.,,arb. u.
Comments,,s0,4K_1mV,4 K
F(x)=,,,C/B*2
965,1040.47214,2066,3.97127
965.5,1045.8594,1526,2.91817
966,1050.18618,1367,2.60335
966.5,1055.58111,1304,2.47068
967,1058.23611,1432,2.70639
967.5,1061.70045,1445,2.72205
968,1065.7489,1444,2.70983
968.5,1069.8327,1466,2.74062
969,1074.08122,1542,2.87129
969.5,1077.20093,1427,2.64946
970,1079.31999,1423,2.63685
970.5,1083.64159,1350,2.4916
971,1085.69991,1361,2.50714
971.5,1090.61019,1188,2.1786
972,1095.20013,1170,2.1366
972.5,1097.0382,1171,2.13484
973,1100.30448,980,1.78133
973.5,1102.79466,981,1.77912
974,1104.63766,918,1.66208
974.5,1108.46238,829,1.49577
975,1112.16008,781,1.40447
975.5,1115.4707,744,1.33397
976,1119.17382,694,1.2402
976.5,1122.35953,724,1.29014
977,1123.88884,711,1.26525
977.5,1126.55812,729,1.29421
978,1130.10828,738,1.30607
978.5,1131.44687,755,1.33457
979,1133.95916,759,1.33867
979.5,1137.05992,873,1.53554
980,1139.64143,923,1.61981
980.5,1142.55102,908,1.58943
981,1144.67982,910,1.58996
981.5,1148.24625,941,1.63902
982,1150.05234,952,1.65558
982.5,1152.05576,936,1.62492
983,1153.96269,904,1.56678
983.5,1156.06717,923,1.59679
984,1158.69643,921,1.58972
984.5,1161.22954,919,1.58281
985,1163.73186,903,1.5519
985.5,1166.66164,903,1.54801
986,1168.93868,914,1.56381
986.5,1171.11918,919,1.56944
987,1173.69461,905,1.54214
987.5,1175.91135,904,1.53753
988,1178.85134,906,1.53709
988.5,1181.13736,904,1.53073
989,1184.04875,903,1.52528
989.5,1186.10864,899,1.51588
990,1189.45116,915,1.53852
990.5,1194.04493,909,1.52256
991,1196.96568,893,1.49211
991.5,1198.04708,930,1.55253
992,1200.60971,901,1.5009
992.5,1203.50341,1079,1.7931
993,1207.18946,1064,1.76277
993.5,1209.52798,1120,1.85196
994,1212.00007,1242,2.0495
994.5,1214.21037,1315,2.16602
995,1215.59802,1441,2.37085
995.5,1218.27319,1489,2.44444
996,1220.38943,1664,2727
996.5,1221.64899,1837,3.00741
997,1224.89096,1937,3.16273
997.5,1226.08714,2078,3.38964
998,1228.11048,2207,3.59414
998.5,1230.43292,2413,3.9222
999,1232.88944,2594,4208
999.5,1235.57946,2663,4.31053
1000,1237.77504,2848,4.60181
1000.5,1240.23722,3039,4.90068
1001,1243.33066,3230,5.19572
1001.5,1245.43235,3404,5.46637
1002,1248.03291,3581,5.73863
1002.5,1251.09976,3801,6.07625
1003,1253.80403,3899,6.21947
1003.5,1256.87547,4084,6.49865
1004,1258.32237,4259,6.76933
1004.5,1261.03255,4403,6.98317
1005,1263.31287,4548,7.20012
1005.5,1266.29298,4609,7.27952
1006,1269.87396,4804,7.56611
1006.5,1272.59278,4796,7.53737
1007,1275.3137,4794,7.51815
1007.5,1278.33635,4800,7.50976
1008,1280.06245,4818,7.52776
1008.5,1282.55619,4817,7.51156
1009,1284.25193,4799,7.47361
1009.5,1286.61585,4621,7.18319
1010,1288.18104,4623,7.17756
1010.5,1289.84756,4451,6.90159
1011,1291.34846,4407,6.82542
1011.5,1293.55181,4267,6.59734
1012,1296.95955,4193,6.46589
1012.5,1298.89942,4008,6.17138
1013,1300.77393,3829,5.88726
1013.5,1302.81712,3818,5.86114
1014,1304.25963,3641,5.58324
1014.5,1306.60702,3631,5.55791
1015,1308.95623,3624,5.53724
1015.5,1310.93879,3629,5.53649
1016,1312.88937,3653,5.56483
1016.5,1315.74664,3977,6.04524
1017,1318.4049,4174,6.33189
1017.5,1320.83038,4539,6.87295
1018,1323.66051,5134,7.75728
1018.5,1326.39212,5768,8.69728
1019,1328.15174,6539,9.84677
1019.5,1330.01354,7328,11.01944
1020,1331.60787,8285,12.4436
1020.5,1333.97691,9307,13.95376
1021,1336.31416,10620,15.89447
1021.5,1339.32635,12067,18.01951
1022,1341.97054,13773,20.52653
1022.5,1344.07788,14982,22.29335
1023,1346.55751,16916,25.12481
1023.5,1348.26379,18690,27.72454
1024,1349.70164,20489,30.36078
1024.5,1351.68036,22975,33.99472
1025,1353.93062,24839,36.69169
1025.5,1356.0476,26997,39.81719
1026,1358.50397,29119,42.86922
1026.5,1359.94865,30914,45.46348
1027,1361.19165,32527,47.79195
1027.5,1363.65294,34061,49.95553
1028,1365.57492,35479,51962
1028.5,1367.93834,36239,52.98338
1029,1369.59268,36710,53.60718
1029.5,1371.85793,36567,53.31019
1030,1373.07466,35792,52.13409
1030.5,1375.37695,34436,50075
1031,1377.44371,32923,47.80304
1031.5,1380.3601,30939,44.82743
1032,1382.26078,28559,41.32216
1032.5,1384.46847,26105,37.71122
1033,1386.67791,23596,34.03242
1033.5,1389.05895,21304,30674
1034,1391.23795,18385,26.4297
1034.5,1393.31667,15732,22.58209
1035,1395.05688,12883,18.4695
1035.5,1397.34291,11000,15.74417
1036,1400.14136,8641,12.34304
1036.5,1402.09066,6529,9.31324
1037,1403.56455,5079,7.23729
1037.5,1405.21001,3868,5.50523
1038,1407.02724,3104,4.41214
1038.5,1409187,2658,3.77239
1039,1411.24611,2467,3.4962
1039.5,1413.13616,2408,3.40802
1040,1414.99357,2411,3.40779
1040.5,1417.26239,2452,3.46019
1041,1418.37103,2578,3.63516
1041.5,1419.41217,2644,3.72549
1042,1421.61705,2822,3.97013
1042.5,1423.41307,3028,4.25456
1043,1423.56747,3215,4.51682
1043.5,1425.0575,3436,4.82226
1044,1427.26812,3619,5.07123
1044.5,1428.93216,3926,5.49501
1045,1432.24319,4173,5.82722
1045.5,1433.22457,4391,6.12744
1046,1434.48122,4581,6.38698
1046.5,1436.63134,4656,6.48183
1047,1437753,4795,6.67013
1047.5,1439.63131,4979,6.91705
1048,1442.26719,4988,6.91689
1048.5,1446.03973,4983,6.89193
1049,1448.09557,4859,6.71088
1049.5,1449.4993,4769,6.5802
1050,1451.42048,4616,6.36067
1050.5,1453.48093,4333,5.96224
1051,1455.64638,4032,5.53981
1051.5,1457.81355,3829,5.25307
1052,1459.53427,3463,4.74535
1052.5,1461.56677,3216,4.40076
1053,1464.60153,3017,4.11989
1053.5,1466.39606,2671,3.64294
1054,1468.39923,2316,3.15446
1054.5,1470.33491,2036,2.76944
1055,1472.75597,1841,2.50007
1055.5,1473.69232,1656,2.24742
1056,1475.4941,1492,2.02237
1056.5,1478.23156,1400,1.89416
1057,1480.38276,1242,1.67794
1057.5,1480.97739,1124,1.51792
1058,1482.68107,1116,1.50538
1058.5,1485.39116,1065,1.43397
1059,1486.9593,1021,1.37327
1059.5,1487.69627,873,1.17363
1060,1490.37696,872,1.17017
1060.5,1492.5044,864,1.15779
1061,1494.32102,844,1.12961
1061.5,1494.95792,862,1.15321
1062,1496.32518,875,1.16953
1062.5,1498076,842,1.12411
1063,1500.59345,811,1.08091
1063.5,1502.13862,689,0.91736
1064,1504.24202,664,0.88284
1064.5,1504.81482,666,0.88516
1065,1506.50293,665,0.88284
1065.5,1508.08785,664,0.88059
1066,1509.81351,687,0.91005
1066.5,1511.61034,697,0.9222
1067,1513.65288,678,0.89585
1067.5,1514.71962,654,0.86353
1068,1517.04447,677,0.89252
1068.5,1518.56763,665,0.87583
1069,1519.95223,669,0.88029
1069.5,1522.24706,668,0.87765
1070,1524.54376,681,0.89338
1070.5,1526.80732,643,0.84228
1071,1528.40756,650,0.85056
1071.5,1530.60449,640,0.83627
1072,1532.06743,643,0.83939
1072.5,1533.98722,631,0.82269
1073,1536.75015,676,0.87978
1073.5,1538.42785,649,0.84372
1074,1540.01948,653,0.84804
1074.5,1543.2128,641,0.83073
1075,1544.79357,626,0.81046
1075.5,1546.44652,630,0.81477
1076,1548.41805,620,0.80082
1076.5,1550.14551,624,0.80509
1077,1552.40334,577,0.74336
1077.5,1554.52288,498,0.64071
1078,1556.18652,502,0.64517
1078.5,1558.45197,477,0.61215
1079,1559.59035,485,0.62196
1079.5,1562.35507,494,0.63238
1080,1564.59289,470,0.6008
1080.5,1565.94917,475,0.60666
1081,1568.36874,480,0.6121
1081.5,1570.8266,492,0.62642
1082,1572.43705,461,0.58635
1082.5,1574.36849,451,0.57293
1083,1575.52182,434,0.55093
1083.5,1576.64103,449,0.56957
1084,1578.61397,448,0.56759
1084.5,1581.40663,446,0.56405
1085,1582.53138,438,0.55354
1085.5,1584.86719,451,0.56913
1086,1586.88539,433,0.54572
1086.5,1588.7279,440,0.5539
1087,1591.24985,434,0.54548
1087.5,1593.23986,451,0.56614
1088,1594.73264,361,0.45274
1088.5,1597.29847,390,0.48832
1089,1599.33144,345,0.43143
1089.5,1601.68861,365,0.45577
1090,1603.15431,390,0.48654
1090.5,1605.05131,317,395
1091,1607.05804,315,0.39202
1091.5,1608.35044,296,0.36808
1092,1610.54089,319,0.39614
1092.5,1613631,306,0.37927
1093,1616.00679,300,0.37129
1093.5,1617.95438,313,0.38691
1094,1619.86837,317,0.39139
1094.5,1622.57597,293,0.36115
1095,1624.02722,305,0.37561
1095.5,1626.9567,295,0.36264
1096,1628.6646,260,0.31928
1096.5,1631.38412,261,0.31997
1097,1633.49363,275,0.3367
1097.5,1635.10033,1828,2.23595
1098,1637.25079,264,0.32249
1098.5,1639.87373,280,0.34149
1099,1641.08943,,--
1099.5,1643.97121,,--
1100,1645.44435,,--
1100.5,1647.13668,,--
1101,1649.26612,,--
1101.5,1650.92657,,--
1102,1653.4602,,--
1102.5,1654.72574,,--
1103,1656.28356,,--
1103.5,1656.31599,,--
1104,1659.84156,,--
1104.5,1661.76947,,--
1105,1665.30272,,--
1105.5,1666.21565,,--
1106,1667.34856,,--
1106.5,1669.50482,,--
1107,1672.46718,,--
1107.5,1673.82528,,--
1108,1675.11193,,--
1108.5,1677.05876,,--
1109,1679.63036,,--
1109.5,1683.15761,,--
1110,1684.96638,,--
1110.5,1687.47428,,--
1111,1689.39806,,--
1111.5,1691.17732,,--
1112,1693.9142,,--
1112.5,1694.77922,,--
1113,1697.11701,,--
1113.5,1699.27362,,--
1114,1702.64855,,--
1114.5,1704.99558,,--
1115,1707.67747,,--
1115.5,1709.36622,,--
1116,1711.61101,,--
1116.5,1713.89555,,--
1117,1717.18127,,--
1117.5,1719.65712,,--
1118,1722.76543,,--
1118.5,1724.32173,,--
1119,1726.88081,,--
1119.5,1728.36745,,--
1120,1730.96937,,--
1120.5,1734.28015,,--
1121,1736.70323,,--
1121.5,1739.46399,,--
1122,1741.52127,,--
1122.5,1743.61837,,--
1123,1744.71224,,--
1123.5,1746.36665,,--
1124,1749.51516,,--
1124.5,1751.51058,,--
1125,1752.61217,,--
1125.5,1754.87365,,--
1126,1757.21276,,--
1126.5,1760.71479,,--
1127,1763.21031,,--
1127.5,1765.85884,,--
1128,1767.53599,,--
1128.5,1769.96552,,--
1129,1772.13537,,--
1129.5,1774.60844,,--
1130,1777.31015,,--
1130.5,1778.36053,,--
1131,1780.69172,,--
1131.5,1783.92961,,--
1132,1785.85282,,--
1132.5,1787.25062,,--
1133,1789.29157,,--
1133.5,1791.78813,,--
1134,1794.06121,,--
1134.5,1795.5812,,--
1135,1797.33006,,--
1135.5,1799.68672,,--
1136,1802.4251,,--
1136.5,1804.93959,,--
1137,1807.57106,,--
1137.5,1809.75056,,--
1138,1812.08472,,--
1138.5,1812.06632,,--
1139,1814.97521,,--
1139.5,1816.82267,,--
1140,1821.37517,,--
1140.5,1824.7908,,--
1141,1826.00016,,--
1141.5,1828.81293,,--
1142,1831.2095,,--
1142.5,1833.26547,,--
1143,1834.1777,,--
1143.5,1834.4793,,--
1144,1837.15354,,--
1144.5,1839.71637,,--
1145,1840.29031,,--
1145.5,1842.43677,,--
1146,1845.35323,,--
1146.5,1846.73803,,--
1147,1848.31667,,--
1147.5,1850.12797,,--
1148,1851.48009,,--
1148.5,1852.48759,,--
1149,1855.26787,,--
1149.5,1857.66641,,--
1150,1858.8727,,--
1150.5,1861.62396,,--
1151,1862.91161,,--
1151.5,1864.54866,,--
1152,1864.95069,,--
1152.5,1867.17149,,--
1153,1868.62095,,--
1153.5,1869.83989,,--
1154,1872.02946,,--
1154.5,1873.71767,,--
1155,1878.0085,,--
1155.5,1877.37256,,--
1156,1879.76711,,--
1156.5,1879.67593,,--
1157,1881.25793,,--
1157.5,1883.38716,,--
1158,1884.62299,,--
1158.5,1885.43154,,--
1159,1886.78739,,--
1159.5,1889.00394,,--
1160,1890.83273,,--
1160.5,1890.82654,,--
1161,1892.34599,,--
1161.5,1894.14145,,--
1162,1894.80333,,--
1162.5,1896446,,--
1163,1898.32618,,--
1163.5,1900.99381,,--
1164,1903.23295,,--
1164.5,1904.57114,,--
1165,1905.28189,,--
1165.5,1905.83617,,--
1166,1905.40672,,--
1166.5,1907.85324,,--
1167,1908.41033,,--
1167.5,1909.67839,,--
1168,1910.94813,,--
1168.5,1912.21957,,--
1169,1913.49269,,--
1169.5,1915.44007,,--
1170,1916.87539,,--
1170.5,1918.11456,,--
1171,1919.95,,--
1171.5,1922.42258,,--
1172,1924.66029,,--
1172.5,1926.02714,,--
1173,1926.99835,,--
1173.5,1927.57312,,--
1174,1928.86506,,--
1174.5,1930.15875,,--
1175,1930.85635,,--
1175.5,1932.51204,,--
1176,1933.17226,,--
1176.5,1934.35251,,--
1177,1935.73416,,--
1177.5,1937.7175,,--
1178,1939.26335,,--
1178.5,1940.57102,,--
1179,1941.59997,,--
1179.5,1942.67041,,--
1180,1943.70217,,--
1180.5,1945.81939,,--
1181,1947.13593,,--
1181.5,1948.45424,,--
1182,1949.77435,,--
1182.5,1950.49234,,--
1183,1949.84157,,--
1183.5,1951.1653,,--
1184,1953.53971,,--
1184.5,1953.81816,,--
1185,1954.70294,,--
1185.5,1955.34638,,--
1186,1953.60406,,--
1186.5,1955.2596,,--
1187,1955.29714,,--
1187.5,1956.63182,,--
1188,1957.96833,,--
1188.5,1959.22549,,--
1189,1958.04731,,--
1189.5,1958.08689,,--
1190,1959.75344,,--
1190.5,1962.80611,,--
1191,1963.29704,,--
1191.5,1964.68531,,--
1192,1965.34135,,--
1192.5,1965.63097,,--
1193,1966.20688,,--
1193.5,1967.5601,,--
1194,1968.71069,,--
1194.5,1969.28992,,--
1195,1969.74708,,--
1195.5,1970.57371,,--
1196,1971.93462,,--
1196.5,1973.33844,,--
1197,1974.45674,,--
1197.5,1975.04234,,--
1198,1975.42314,,--
1198.5,1976.91558,,--
1199,1977.29821,,--
1199.5,1978.67039,,--
1200,1979.46714,,--
1200.5,1981.09034,,--
1201,1981.27046,,--
1201.5,1982.73187,,--
1202,1982.91338,,--
1202.5,1983.38482,,--
1203,1984975,,--
1203.5,1982.5173,,--
1204,1983.96513,,--
1204.5,1983.42338,,--
1205,1985.99405,,--
1205.5,1986.78181,,--
1206,1988.56775,,--
1206.5,1989.06681,,--
1207,1987.65279,,--
1207.5,1987.94377,,--
1208,1987.69366,,--
1208.5,1988.19335,,--
1209,1988.65192,,--
1209.5,1988.98584,,--
1210,1989.52886,,--
1210.5,1989.98896,,--
1211,1991.16001,,--
1211.5,1990.28353,,--
1212,1991.41424,,--
1212.5,1991.20668,,--
1213,1992.33921,,--
1213.5,1993.01202,,--
1214,1992.93082,,--
1214.5,1993.0593,,--
1215,1993.94358,,--
1215.5,1994.66085,,--
1216,1995.21083,,--
1216.5,1996.60248,,--
1217,1996.81758,,--
1217.5,1997.20133,,--
1218,1997.88039,,--
1218.5,1996.78999,,--
1219,1997.93349,,--
1219.5,1998.65633,,--
1220,1998.53559,,--
1220.5,1998.54143,,--
1221,1998.58956,,--
1221.5,1998.25709,,--
1222,1997.62802,,--
1222.5,1997.04057,,--
1223,1998.18948,,--
1223.5,1999.29732,,--
1224,1999.43088,,--
1224.5,1999.22507,,--
1225,1998.6793,,--
1225.5,1999.02518,,--
1226,2000.00916,,--
1226.5,1999.6756,,--
1227,1999.38421,,--
1227.5,1999.26283,,--
1228,1999.65266,,--
1228.5,2000.25613,,--
1229,1998.42859,,--
1229.5,2000.01382,,--
1230,2000.02059,,--
1230.5,2000.19831,,--
1231,2000.11968,,--
1231.5,1999.57031,,--
1232,1999.53403,,--
1232.5,1999.15503,,--
1233,1999.11846,,--
1233.5,1998.73877,,--
1234,1999.34557,,--
1234.5,1999.43786,,--
1235,1999.70209,,--
1235.5,1998.67708,,--
1236,1998.21001,,--
1236.5,1998.25881,,--
1237,1997.10198,,--
1237.5,1997.06402,,--
1238,1997.06912,,--
1238.5,1997.37619,,--
1239,1996.4751,,--
1239.5,1996.22075,,--
1240,1996.57107,,--
1240.5,1995.79763,,--
1241,1995.58569,,--
1241.5,1995.37351,,--
1242,1995.29102,,--
1242.5,1995.29511,,--
,,,--
,,,--
,,,--
,,,--
,,,--
,,,--
,,,--
,,,--
,,,--
,,,--
,,,--
,,,--
,,,--
,,,--
,,,--
,,,--
,,,--
,,,--
,,,--
,,,--
,,,--
,,,--
,,,--
,,,--
,,,--
,,,--
,,,--
,,,--
,,,--
,,,--
