"YbYag_5_A_R"
"Wavelength nm.","R%"
800,00000,23,80109
801,00000,22,60903
802,00000,20,95069
803,00000,19,23060
804,00000,17,76349
805,00000,16,39749
806,00000,15,41011
807,00000,14,73316
808,00000,14,42169
809,00000,14,53369
810,00000,15,08405
811,00000,16,09691
812,00000,17,49002
813,00000,19,18069
814,00000,21,13165
815,00000,23,18919
816,00000,25,35442
817,00000,27,68562
818,00000,30,08765
819,00000,32,27261
820,00000,34,25123
821,00000,35,93893
822,00000,37,61621
823,00000,38,99894
824,00000,40,16882
825,00000,40,95892
826,00000,41,59165
827,00000,41,87166
828,00000,41,92561
829,00000,41,61012
830,00000,41,03451
831,00000,40,24269
832,00000,38,98406
833,00000,37,48178
834,00000,35,55668
835,00000,33,56242
836,00000,31,28409
837,00000,28,84673
838,00000,26,12915
839,00000,23,48211
840,00000,20,78539
841,00000,18,09788
842,00000,15,38851
843,00000,13,04736
844,00000,11,28393
845,00000,10,04282
846,00000,9,34531
847,00000,9,16042
848,00000,9,54917
849,00000,10,69175
850,00000,12,41244
851,00000,14,81201
852,00000,17,49099
853,00000,20,49709
854,00000,23,61700
855,00000,26,84804
856,00000,29,89465
857,00000,32,91334
858,00000,35,56238
859,00000,38,65822
860,00000,41,21231
861,00000,43,29667
862,00000,44,87836
863,00000,46,37643
864,00000,47,89304
865,00000,47,73759
866,00000,47,39365
867,00000,46,82418
868,00000,46,91477
869,00000,45,79908
870,00000,44,35027
871,00000,42,14580
872,00000,40,15100
873,00000,37,57275
874,00000,35,20006
875,00000,32,43963
876,00000,28,34532
877,00000,24,30754
878,00000,19,77859
879,00000,16,64936
880,00000,13,09113
881,00000,10,06775
882,00000,7,22242
883,00000,5,85263
884,00000,6,25936
885,00000,7,99122
886,00000,11,30321
887,00000,14,66169
888,00000,18,92420
889,00000,24,37102
890,00000,29,89645
891,00000,36,15034
892,00000,42,62295
893,00000,48,83933
894,00000,52,50161
895,00000,57,17477
896,00000,58,63429
897,00000,66,86151
898,00000,65,85377
899,00000,70,83286
900,00000,70,11266
901,00000,73,80209
902,00000,75,02853
903,00000,78,19746
904,00000,77,88937
905,00000,76,74755
906,00000,73,72745
907,00000,73,50256
908,00000,70,42542
909,00000,65,98946
910,00000,61,26953
911,00000,58,06408
912,00000,51,63305
913,00000,46,47742
914,00000,39,13934
915,00000,32,72875
916,00000,24,06428
917,00000,20,85337
918,00000,23,92408
919,00000,34,20591
920,00000,46,79701
921,00000,59,25685
922,00000,71,10474
923,00000,78,24265
924,00000,86,65977
925,00000,92,37991
926,00000,99,93584
927,00000,103,60976
928,00000,106,73281
929,00000,107,60282
930,00000,106,37406
931,00000,104,69683
932,00000,105,18907
933,00000,107,72943
934,00000,107,70639
935,00000,107,44244
936,00000,108,30078
937,00000,111,59148
938,00000,111,91541
939,00000,111,46135
940,00000,109,52598
941,00000,110,23718
942,00000,112,11220
943,00000,113,05307
944,00000,113,70844
945,00000,110,61312
946,00000,110,29980
947,00000,109,66316
948,00000,109,69997
949,00000,110,25032
950,00000,108,46386
951,00000,109,45924
952,00000,109,22359
953,00000,110,48881
954,00000,110,52338
955,00000,109,96696
956,00000,109,49120
957,00000,108,07562
958,00000,109,49261
959,00000,109,81346
960,00000,111,54604
961,00000,110,33355
962,00000,109,91622
963,00000,108,18301
964,00000,107,16034
965,00000,108,27386
966,00000,109,33681
967,00000,109,30742
968,00000,108,32473
969,00000,107,41929
970,00000,108,21448
971,00000,108,79079
972,00000,109,26942
973,00000,109,63341
974,00000,109,17982
975,00000,108,87742
976,00000,108,82297
977,00000,109,06190
978,00000,109,49970
979,00000,108,74282
980,00000,108,88456
981,00000,108,99703
982,00000,109,21277
983,00000,109,12070
984,00000,109,43593
985,00000,108,50955
986,00000,108,02034
987,00000,106,77492
988,00000,107,91423
989,00000,108,89901
990,00000,108,68753
991,00000,107,68646
992,00000,106,95962
993,00000,106,92020
994,00000,107,12844
995,00000,106,76698
996,00000,107,32375
997,00000,107,60027
998,00000,108,10269
999,00000,108,25372
1000,00000,108,76474
1001,00000,108,13391
1002,00000,107,28993
1003,00000,106,54973
1004,00000,106,89661
1005,00000,106,91261
1006,00000,107,04691
1007,00000,106,91800
1008,00000,107,39576
1009,00000,106,97974
1010,00000,106,64290
1011,00000,106,04181
1012,00000,106,51349
1013,00000,106,48618
1014,00000,106,58807
1015,00000,106,02163
1016,00000,106,95502
1017,00000,106,65756
1018,00000,107,71241
1019,00000,106,75990
1020,00000,107,61636
1021,00000,107,18327
1022,00000,107,06602
1023,00000,106,56133
1024,00000,106,07624
1025,00000,106,46091
1026,00000,106,04301
1027,00000,105,90102
1028,00000,105,73582
1029,00000,106,03746
1030,00000,106,31424
1031,00000,106,21029
1032,00000,106,17136
1033,00000,105,78507
1034,00000,105,88387
1035,00000,106,44794
1036,00000,105,71319
1037,00000,105,91882
1038,00000,105,18683
1039,00000,106,38628
1040,00000,105,73688
1041,00000,106,60132
1042,00000,105,97130
1043,00000,105,77588
1044,00000,104,74165
1045,00000,105,21013
1046,00000,105,43102
1047,00000,105,72616
1048,00000,105,00090
1049,00000,104,99005
1050,00000,105,54053
1051,00000,105,58694
1052,00000,105,82080
1053,00000,104,80097
1054,00000,104,82748
1055,00000,104,78014
1056,00000,104,97813
1057,00000,105,44310
1058,00000,105,17072
1059,00000,105,57607
1060,00000,104,86620
1061,00000,105,17284
1062,00000,105,34946
1063,00000,106,08001
1064,00000,106,24281
1065,00000,105,86555
1066,00000,105,00816
1067,00000,104,70335
1068,00000,105,36634
1069,00000,106,15970
1070,00000,105,83617
1071,00000,104,88137
1072,00000,104,87114
1073,00000,104,73637
1074,00000,104,75725
1075,00000,104,44373
1076,00000,105,34511
1077,00000,105,87016
1078,00000,105,73877
1079,00000,104,77526
1080,00000,104,52250
1081,00000,104,64639
1082,00000,105,01254
1083,00000,105,08601
1084,00000,105,24142
1085,00000,105,43806
1086,00000,105,22963
1087,00000,105,37813
1088,00000,105,41148
1089,00000,104,98905
1090,00000,105,28040
1091,00000,104,67620
1092,00000,105,07221
1093,00000,104,22665
1094,00000,104,19951
1095,00000,104,11037
1096,00000,104,02495
1097,00000,104,38200
1098,00000,104,16232
1099,00000,104,40868
1100,00000,104,59386
1101,00000,104,99577
1102,00000,104,55605
1103,00000,104,27109
1104,00000,104,14912
1105,00000,104,45953
1106,00000,104,41319
1107,00000,104,58809
1108,00000,104,70214
1109,00000,105,04694
1110,00000,104,94813
1111,00000,105,40826
1112,00000,105,38412
1113,00000,105,41204
1114,00000,104,51870
1115,00000,104,32321
1116,00000,103,88245
1117,00000,103,92944
1118,00000,103,56918
1119,00000,103,86819
1120,00000,103,92084
1121,00000,104,12061
1122,00000,104,43774
1123,00000,104,60249
1124,00000,104,86003
1125,00000,104,83080
1126,00000,105,14416
1127,00000,104,73697
1128,00000,104,38994
1129,00000,104,13648
1130,00000,103,78530
1131,00000,103,46390
1132,00000,103,18237
1133,00000,103,54129
1134,00000,103,93707
1135,00000,104,11754
1136,00000,104,43526
1137,00000,103,97748
1138,00000,104,12727
1139,00000,103,78634
1140,00000,104,10942
1141,00000,103,64367
1142,00000,103,77979
1143,00000,103,56107
1144,00000,104,20284
1145,00000,104,01858
1146,00000,104,49575
1147,00000,103,85083
1148,00000,103,94249
1149,00000,103,56075
1150,00000,103,91593
1151,00000,103,81385
1152,00000,104,13680
1153,00000,103,75506
1154,00000,104,15758
1155,00000,103,79240
1156,00000,103,86395
1157,00000,103,14531
1158,00000,102,83064
1159,00000,103,08549
1160,00000,103,13057
1161,00000,103,10362
1162,00000,102,49911
1163,00000,102,46283
1164,00000,102,37161
1165,00000,102,41534
1166,00000,102,21346
1167,00000,102,48924
1168,00000,102,33976
1169,00000,102,02246
1170,00000,100,99822
1171,00000,99,96536
1172,00000,99,43291
1173,00000,99,05594
1174,00000,99,09438
1175,00000,97,98638
1176,00000,96,74332
1177,00000,95,06475
1178,00000,93,85020
1179,00000,92,22469
1180,00000,90,46049
1181,00000,87,86401
1182,00000,85,03943
1183,00000,81,37820
1184,00000,77,05100
1185,00000,71,77074
1186,00000,65,46229
1187,00000,58,33752
1188,00000,50,23048
1189,00000,42,40081
1190,00000,34,64068
1191,00000,27,62553
1192,00000,20,49496
1193,00000,14,85067
1194,00000,10,67324
1195,00000,8,90973
1196,00000,9,09838
1197,00000,11,18507
1198,00000,14,98383
1199,00000,19,61710
1200,00000,23,08796
