"YbYag_B_A"
"Wavelength nm.","R%"
800,00000,20,98272
801,00000,20,97485
802,00000,20,95321
803,00000,20,97066
804,00000,20,90135
805,00000,20,87407
806,00000,20,86250
807,00000,20,91357
808,00000,20,97373
809,00000,20,95801
810,00000,20,99990
811,00000,20,96743
812,00000,20,90806
813,00000,20,89461
814,00000,20,84935
815,00000,20,79702
816,00000,20,77896
817,00000,20,80535
818,00000,20,93676
819,00000,20,95818
820,00000,20,98195
821,00000,21,00660
822,00000,20,95471
823,00000,20,90919
824,00000,20,87700
825,00000,20,86103
826,00000,20,88189
827,00000,20,82770
828,00000,20,83852
829,00000,20,83101
830,00000,20,86642
831,00000,20,84997
832,00000,20,81569
833,00000,20,79792
834,00000,20,81002
835,00000,20,89657
836,00000,20,90414
837,00000,20,85468
838,00000,20,80262
839,00000,20,89414
840,00000,20,87350
841,00000,20,85102
842,00000,20,75475
843,00000,20,81758
844,00000,20,79785
845,00000,20,67074
846,00000,20,74919
847,00000,20,77107
848,00000,20,85137
849,00000,20,80132
850,00000,20,67161
851,00000,20,62914
852,00000,20,57047
853,00000,20,45332
854,00000,20,47786
855,00000,20,33500
856,00000,20,30007
857,00000,20,53077
858,00000,20,59327
859,00000,20,64141
860,00000,20,42655
861,00000,20,27674
862,00000,20,59422
863,00000,20,28675
864,00000,20,25544
865,00000,20,04585
866,00000,20,21917
867,00000,20,14598
868,00000,20,36331
869,00000,20,34116
870,00000,20,58944
871,00000,20,19100
872,00000,19,83808
873,00000,19,88759
874,00000,20,04948
875,00000,20,57950
876,00000,20,42334
877,00000,20,65516
878,00000,20,40776
879,00000,20,55635
880,00000,19,90660
881,00000,19,36821
882,00000,19,02944
883,00000,19,18818
884,00000,19,56370
885,00000,19,27360
886,00000,19,10936
887,00000,19,46547
888,00000,19,82987
889,00000,19,30426
890,00000,18,58461
891,00000,17,96204
892,00000,17,46928
893,00000,17,76245
894,00000,18,15323
895,00000,19,35066
896,00000,18,87321
897,00000,18,70616
898,00000,18,64202
899,00000,20,96622
900,00000,21,96380
901,00000,24,25146
902,00000,23,86821
903,00000,23,61391
904,00000,22,38530
905,00000,19,83347
906,00000,18,77697
907,00000,19,52215
908,00000,20,65163
909,00000,21,23540
910,00000,19,94106
911,00000,20,71378
912,00000,21,44272
913,00000,22,40069
914,00000,22,69205
915,00000,21,04154
916,00000,20,31237
917,00000,19,61431
918,00000,21,27600
919,00000,20,35447
920,00000,19,62929
921,00000,18,54031
922,00000,18,75160
923,00000,19,10451
924,00000,20,17273
925,00000,19,40958
926,00000,19,80493
927,00000,18,85202
928,00000,19,77590
929,00000,19,04335
930,00000,18,52678
931,00000,19,39628
932,00000,20,31483
933,00000,22,00167
934,00000,19,72435
935,00000,19,69307
936,00000,18,75805
937,00000,19,53512
938,00000,18,17228
939,00000,18,20288
940,00000,18,26559
941,00000,19,16687
942,00000,19,57920
943,00000,19,72577
944,00000,19,92974
945,00000,19,25424
946,00000,19,23558
947,00000,18,19355
948,00000,18,59576
949,00000,18,24229
950,00000,18,82843
951,00000,18,17272
952,00000,18,23636
953,00000,18,62764
954,00000,18,37103
955,00000,18,90941
956,00000,18,23026
957,00000,18,89965
958,00000,18,74700
959,00000,19,48271
960,00000,19,30533
961,00000,19,52475
962,00000,18,68068
963,00000,18,71062
964,00000,18,27847
965,00000,18,33879
966,00000,18,33569
967,00000,18,15235
968,00000,18,63624
969,00000,18,42654
970,00000,18,43770
971,00000,18,31892
972,00000,18,94916
973,00000,19,41367
974,00000,19,57011
975,00000,18,81670
976,00000,19,06681
977,00000,18,73465
978,00000,19,91589
979,00000,19,33008
980,00000,19,38858
981,00000,18,24489
982,00000,17,98758
983,00000,18,00410
984,00000,18,44600
985,00000,19,44164
986,00000,19,64324
987,00000,19,71962
988,00000,18,95127
989,00000,18,86681
990,00000,18,23945
991,00000,18,25007
992,00000,18,20267
993,00000,18,50876
994,00000,18,29358
995,00000,18,15373
996,00000,18,24036
997,00000,19,04534
998,00000,19,11913
999,00000,19,15248
1000,00000,18,43358
1001,00000,18,23068
1002,00000,18,34988
1003,00000,18,43773
1004,00000,18,95645
1005,00000,18,93673
1006,00000,19,69524
1007,00000,19,47338
1008,00000,19,44105
1009,00000,18,67036
1010,00000,18,26671
1011,00000,18,00590
1012,00000,18,20252
1013,00000,18,67326
1014,00000,18,50911
1015,00000,18,70206
1016,00000,18,53981
1017,00000,18,84734
1018,00000,18,93143
1019,00000,18,90741
1020,00000,18,84879
1021,00000,18,21817
1022,00000,17,67311
1023,00000,17,82513
1024,00000,18,07148
1025,00000,18,40912
1026,00000,18,16083
1027,00000,18,18462
1028,00000,18,36110
1029,00000,18,76969
1030,00000,18,32451
1031,00000,18,15335
1032,00000,17,60171
1033,00000,18,35322
1034,00000,18,39393
1035,00000,18,47696
1036,00000,18,10328
1037,00000,18,26284
1038,00000,18,56122
1039,00000,18,30676
1040,00000,18,29435
1041,00000,17,82877
1042,00000,18,00411
1043,00000,17,72266
1044,00000,17,73073
1045,00000,17,95484
1046,00000,18,24665
1047,00000,18,52391
1048,00000,18,68397
1049,00000,18,74495
1050,00000,18,59287
1051,00000,18,21067
1052,00000,17,98326
1053,00000,18,09045
1054,00000,18,02565
1055,00000,17,68243
1056,00000,17,62209
1057,00000,17,47827
1058,00000,17,93732
1059,00000,17,97341
1060,00000,18,30235
1061,00000,18,30250
1062,00000,18,40625
1063,00000,18,46906
1064,00000,18,46126
1065,00000,18,42369
1066,00000,18,38030
1067,00000,18,41973
1068,00000,18,20213
1069,00000,18,15846
1070,00000,18,17345
1071,00000,18,12530
1072,00000,18,05889
1073,00000,17,70628
1074,00000,18,05033
1075,00000,18,00260
1076,00000,17,95462
1077,00000,17,55274
1078,00000,17,59623
1079,00000,17,72797
1080,00000,18,12264
1081,00000,18,03968
1082,00000,18,43447
1083,00000,18,30952
1084,00000,18,19946
1085,00000,18,08492
1086,00000,18,19501
1087,00000,18,16985
1088,00000,18,00691
1089,00000,18,00042
1090,00000,18,31988
1091,00000,18,21165
1092,00000,18,21502
1093,00000,18,25092
1094,00000,18,34218
1095,00000,18,17748
1096,00000,18,31833
1097,00000,18,38676
1098,00000,18,43567
1099,00000,18,24164
1100,00000,18,02805
1101,00000,17,88271
1102,00000,18,00479
1103,00000,18,18361
1104,00000,18,46114
1105,00000,18,29103
1106,00000,18,26187
1107,00000,17,93169
1108,00000,18,14030
1109,00000,17,97840
1110,00000,18,00516
1111,00000,17,78363
1112,00000,18,04889
1113,00000,18,11513
1114,00000,18,04984
1115,00000,18,15512
1116,00000,18,34472
1117,00000,18,61143
1118,00000,18,38492
1119,00000,17,94222
1120,00000,17,59711
1121,00000,17,73522
1122,00000,17,84111
1123,00000,17,99455
1124,00000,17,96180
1125,00000,18,32421
1126,00000,18,43999
1127,00000,18,36563
1128,00000,18,26402
1129,00000,17,99380
1130,00000,17,95932
1131,00000,17,77729
1132,00000,17,94151
1133,00000,18,04915
1134,00000,18,04097
1135,00000,18,23424
1136,00000,17,95751
1137,00000,17,89692
1138,00000,17,77036
1139,00000,17,69733
1140,00000,17,75804
1141,00000,17,57281
1142,00000,17,63022
1143,00000,17,90246
1144,00000,18,26734
1145,00000,18,62516
1146,00000,18,38548
1147,00000,18,13065
1148,00000,17,97525
1149,00000,18,06632
1150,00000,18,25132
1151,00000,18,26934
1152,00000,18,27831
1153,00000,17,69859
1154,00000,17,66953
1155,00000,17,81777
1156,00000,18,24112
1157,00000,18,41438
1158,00000,18,32601
1159,00000,18,25765
1160,00000,17,73813
1161,00000,17,50292
1162,00000,17,51876
1163,00000,17,84102
1164,00000,18,08514
1165,00000,17,94952
1166,00000,17,94786
1167,00000,17,74166
1168,00000,17,80372
1169,00000,17,43093
1170,00000,17,56625
1171,00000,17,80389
1172,00000,18,05868
1173,00000,18,08124
1174,00000,17,99450
1175,00000,18,17798
1176,00000,18,02437
1177,00000,17,82854
1178,00000,17,65470
1179,00000,17,71595
1180,00000,17,83587
1181,00000,17,97742
1182,00000,18,18365
1183,00000,18,07125
1184,00000,17,91586
1185,00000,17,84193
1186,00000,17,83705
1187,00000,17,85530
1188,00000,17,40782
1189,00000,17,55902
1190,00000,17,87393
1191,00000,17,98801
1192,00000,17,97463
1193,00000,17,54261
1194,00000,17,60514
1195,00000,17,64704
1196,00000,17,59221
1197,00000,17,76036
1198,00000,17,73555
1199,00000,17,86330
1200,00000,17,77934
