"YbYag_A_A"
"Wavelength nm.","R%"
800,00000,20,85582
801,00000,20,88063
802,00000,20,78880
803,00000,20,79628
804,00000,20,73918
805,00000,20,83666
806,00000,20,79889
807,00000,20,80544
808,00000,20,79645
809,00000,20,80925
810,00000,20,87494
811,00000,20,84381
812,00000,20,82232
813,00000,20,74501
814,00000,20,76762
815,00000,20,78761
816,00000,20,81535
817,00000,20,83743
818,00000,20,88879
819,00000,20,88638
820,00000,20,82813
821,00000,20,70638
822,00000,20,71697
823,00000,20,71810
824,00000,20,81812
825,00000,20,78994
826,00000,20,83442
827,00000,20,74643
828,00000,20,73133
829,00000,20,70875
830,00000,20,64362
831,00000,20,70263
832,00000,20,65530
833,00000,20,74019
834,00000,20,59528
835,00000,20,69135
836,00000,20,66000
837,00000,20,64046
838,00000,20,53461
839,00000,20,62200
840,00000,20,68409
841,00000,20,74451
842,00000,20,64874
843,00000,20,79153
844,00000,20,71424
845,00000,20,68431
846,00000,20,58062
847,00000,20,67456
848,00000,20,52358
849,00000,20,42016
850,00000,20,24426
851,00000,20,46646
852,00000,20,62676
853,00000,20,86452
854,00000,20,72307
855,00000,20,61408
856,00000,20,41503
857,00000,20,30437
858,00000,20,14830
859,00000,20,18719
860,00000,20,15129
861,00000,20,36318
862,00000,19,99109
863,00000,20,05212
864,00000,20,02649
865,00000,20,37667
866,00000,20,35350
867,00000,20,14012
868,00000,20,01372
869,00000,19,90170
870,00000,19,83240
871,00000,19,62427
872,00000,19,30309
873,00000,19,26885
874,00000,19,59276
875,00000,19,67864
876,00000,19,42757
877,00000,19,57305
878,00000,19,95432
879,00000,20,03241
880,00000,19,70349
881,00000,19,26723
882,00000,19,60061
883,00000,19,34630
884,00000,19,33556
885,00000,19,64396
886,00000,18,97970
887,00000,18,84241
888,00000,19,18483
889,00000,20,09095
890,00000,19,95897
891,00000,18,26557
892,00000,18,17113
893,00000,18,80651
894,00000,19,38095
895,00000,19,20561
896,00000,18,28259
897,00000,18,20785
898,00000,18,58178
899,00000,18,57488
900,00000,19,20171
901,00000,18,16928
902,00000,17,94860
903,00000,17,23735
904,00000,17,79070
905,00000,19,93215
906,00000,20,30519
907,00000,20,67007
908,00000,20,57994
909,00000,21,30042
910,00000,21,74395
911,00000,20,68261
912,00000,20,48713
913,00000,19,85427
914,00000,21,31410
915,00000,19,55615
916,00000,19,01476
917,00000,17,25352
918,00000,18,06402
919,00000,18,38628
920,00000,19,42782
921,00000,19,98003
922,00000,19,55964
923,00000,18,68740
924,00000,17,46148
925,00000,18,33372
926,00000,17,88294
927,00000,17,65680
928,00000,17,55869
929,00000,17,71785
930,00000,19,61202
931,00000,19,33281
932,00000,20,45800
933,00000,18,98014
934,00000,18,96446
935,00000,18,63656
936,00000,18,15593
937,00000,18,07830
938,00000,16,31856
939,00000,17,97453
940,00000,17,73457
941,00000,18,19094
942,00000,17,60247
943,00000,17,84011
944,00000,18,87164
945,00000,18,36049
946,00000,18,63589
947,00000,18,59883
948,00000,19,00057
949,00000,18,80072
950,00000,17,48677
951,00000,17,68761
952,00000,18,41688
953,00000,19,82229
954,00000,20,24102
955,00000,19,14185
956,00000,18,70246
957,00000,18,19892
958,00000,17,78395
959,00000,18,25186
960,00000,17,57029
961,00000,18,76629
962,00000,18,43235
963,00000,18,72712
964,00000,18,57532
965,00000,18,16280
966,00000,18,52408
967,00000,17,29656
968,00000,16,70644
969,00000,16,58847
970,00000,16,80660
971,00000,17,27881
972,00000,17,49820
973,00000,18,50383
974,00000,19,01504
975,00000,18,75848
976,00000,18,47253
977,00000,18,87436
978,00000,18,45273
979,00000,18,43064
980,00000,17,59287
981,00000,17,97052
982,00000,17,42999
983,00000,17,60169
984,00000,17,77332
985,00000,18,32496
986,00000,17,96665
987,00000,17,69533
988,00000,17,55958
989,00000,18,13594
990,00000,18,42198
991,00000,18,33526
992,00000,17,96081
993,00000,18,07548
994,00000,18,08058
995,00000,18,05063
996,00000,18,14476
997,00000,17,77578
998,00000,18,09450
999,00000,17,54075
1000,00000,18,47474
1001,00000,18,10020
1002,00000,18,33580
1003,00000,17,93840
1004,00000,17,40875
1005,00000,17,64567
1006,00000,17,35351
1007,00000,18,06750
1008,00000,18,20050
1009,00000,18,45562
1010,00000,18,67796
1011,00000,18,17074
1012,00000,18,39156
1013,00000,18,53778
1014,00000,18,90005
1015,00000,18,62500
1016,00000,18,44418
1017,00000,18,35949
1018,00000,18,51407
1019,00000,18,31492
1020,00000,18,54004
1021,00000,18,63679
1022,00000,18,72567
1023,00000,18,48066
1024,00000,17,96348
1025,00000,17,88751
1026,00000,17,47788
1027,00000,17,72526
1028,00000,17,72015
1029,00000,18,12757
1030,00000,18,04948
1031,00000,18,18346
1032,00000,18,14980
1033,00000,18,04913
1034,00000,17,92368
1035,00000,17,79803
1036,00000,17,95260
1037,00000,17,86635
1038,00000,17,80280
1039,00000,17,51163
1040,00000,17,90788
1041,00000,18,17363
1042,00000,18,67221
1043,00000,18,43112
1044,00000,18,33307
1045,00000,18,19935
1046,00000,18,10660
1047,00000,18,08579
1048,00000,18,10505
1049,00000,17,99926
1050,00000,17,73698
1051,00000,17,24231
1052,00000,17,45662
1053,00000,17,43375
1054,00000,17,41090
1055,00000,17,27103
1056,00000,17,85831
1057,00000,17,85388
1058,00000,17,89141
1059,00000,17,39895
1060,00000,17,72178
1061,00000,17,82123
1062,00000,18,37918
1063,00000,18,19652
1064,00000,18,52040
1065,00000,17,90923
1066,00000,17,82354
1067,00000,17,57277
1068,00000,17,56963
1069,00000,17,85340
1070,00000,17,95749
1071,00000,17,86121
1072,00000,17,95924
1073,00000,17,73828
1074,00000,18,05130
1075,00000,17,62780
1076,00000,17,80521
1077,00000,17,92249
1078,00000,18,09037
1079,00000,17,71643
1080,00000,17,79870
1081,00000,17,62087
1082,00000,17,43162
1083,00000,17,16835
1084,00000,17,45813
1085,00000,17,88581
1086,00000,17,71974
1087,00000,17,90019
1088,00000,17,67134
1089,00000,17,74514
1090,00000,17,95359
1091,00000,18,06069
1092,00000,18,07858
1093,00000,17,60278
1094,00000,17,72499
1095,00000,17,65324
1096,00000,17,92627
1097,00000,17,76024
1098,00000,17,93637
1099,00000,18,16036
1100,00000,18,29693
1101,00000,18,20149
1102,00000,17,86882
1103,00000,17,60060
1104,00000,17,89030
1105,00000,17,92546
1106,00000,18,05652
1107,00000,17,68784
1108,00000,17,50508
1109,00000,17,40572
1110,00000,17,57165
1111,00000,17,81120
1112,00000,17,50894
1113,00000,17,36695
1114,00000,17,22628
1115,00000,17,73062
1116,00000,17,87196
1117,00000,18,00234
1118,00000,18,03209
1119,00000,17,96869
1120,00000,17,78403
1121,00000,17,87051
1122,00000,18,17067
1123,00000,18,23277
1124,00000,18,14542
1125,00000,17,72987
1126,00000,17,67010
1127,00000,17,52851
1128,00000,17,90924
1129,00000,17,96550
1130,00000,18,09513
1131,00000,17,73670
1132,00000,17,73081
1133,00000,17,65231
1134,00000,17,81194
1135,00000,17,86898
1136,00000,17,75647
1137,00000,17,58587
1138,00000,17,29619
1139,00000,17,42476
1140,00000,17,48985
1141,00000,17,86485
1142,00000,17,71144
1143,00000,17,73176
1144,00000,17,63262
1145,00000,17,71315
1146,00000,17,52617
1147,00000,17,63524
1148,00000,17,68829
1149,00000,17,91384
1150,00000,17,71352
1151,00000,17,46321
1152,00000,17,48051
1153,00000,17,32005
1154,00000,17,75027
1155,00000,17,48488
1156,00000,17,72389
1157,00000,17,49072
1158,00000,17,64861
1159,00000,17,47810
1160,00000,17,43810
1161,00000,17,49974
1162,00000,17,62111
1163,00000,17,62696
1164,00000,17,53910
1165,00000,17,51984
1166,00000,17,80532
1167,00000,17,99717
1168,00000,18,01871
1169,00000,17,85679
1170,00000,17,79405
1171,00000,17,67834
1172,00000,17,70557
1173,00000,17,64958
1174,00000,17,54409
1175,00000,17,46877
1176,00000,17,58234
1177,00000,17,80576
1178,00000,17,57628
1179,00000,17,40211
1180,00000,17,46151
1181,00000,17,49805
1182,00000,17,50741
1183,00000,17,45317
1184,00000,17,58587
1185,00000,17,44862
1186,00000,17,38098
1187,00000,17,42792
1188,00000,17,64391
1189,00000,17,57759
1190,00000,17,56745
1191,00000,17,44594
1192,00000,17,49470
1193,00000,17,45638
1194,00000,17,54228
1195,00000,17,72418
1196,00000,17,78588
1197,00000,17,86035
1198,00000,17,65390
1199,00000,17,78029
1200,00000,17,85248
