"YbYag_5_B_R"
"Wavelength nm.","R%"
800,00000,25,26736
801,00000,24,09973
802,00000,22,38635
803,00000,20,77105
804,00000,19,21085
805,00000,17,69195
806,00000,16,29932
807,00000,15,22576
808,00000,14,62030
809,00000,14,46364
810,00000,14,71230
811,00000,15,34788
812,00000,16,35369
813,00000,17,73661
814,00000,19,55638
815,00000,21,58913
816,00000,23,88918
817,00000,26,27285
818,00000,28,61075
819,00000,30,79700
820,00000,32,79573
821,00000,34,87623
822,00000,36,90171
823,00000,38,59772
824,00000,39,95584
825,00000,40,94725
826,00000,41,83844
827,00000,42,31460
828,00000,42,61828
829,00000,42,45319
830,00000,42,06703
831,00000,41,48843
832,00000,40,59439
833,00000,39,37796
834,00000,37,71215
835,00000,35,94381
836,00000,33,94875
837,00000,31,62255
838,00000,29,07027
839,00000,26,34885
840,00000,23,52951
841,00000,20,77896
842,00000,17,98089
843,00000,15,54098
844,00000,13,19669
845,00000,11,46240
846,00000,9,99821
847,00000,9,27964
848,00000,9,17264
849,00000,9,77648
850,00000,11,10649
851,00000,12,94554
852,00000,15,37300
853,00000,17,99074
854,00000,20,86363
855,00000,23,95458
856,00000,27,18357
857,00000,30,62067
858,00000,33,81251
859,00000,36,94487
860,00000,39,41219
861,00000,41,70839
862,00000,43,24542
863,00000,45,14523
864,00000,46,69583
865,00000,47,63483
866,00000,47,96936
867,00000,48,22664
868,00000,48,60117
869,00000,47,83207
870,00000,46,50622
871,00000,45,27584
872,00000,43,88479
873,00000,41,41422
874,00000,38,03857
875,00000,34,54212
876,00000,31,19504
877,00000,28,09312
878,00000,24,94200
879,00000,21,37767
880,00000,17,07339
881,00000,12,47476
882,00000,9,00474
883,00000,6,78205
884,00000,5,86832
885,00000,5,51995
886,00000,6,49283
887,00000,9,17913
888,00000,13,82646
889,00000,20,53845
890,00000,25,92776
891,00000,30,78536
892,00000,35,69560
893,00000,42,22157
894,00000,48,09404
895,00000,52,83281
896,00000,55,82956
897,00000,61,57746
898,00000,63,75382
899,00000,68,48373
900,00000,69,80609
901,00000,70,88725
902,00000,70,78212
903,00000,71,15781
904,00000,72,84901
905,00000,73,25032
906,00000,73,04708
907,00000,72,82269
908,00000,69,76714
909,00000,64,42352
910,00000,61,04482
911,00000,56,11940
912,00000,51,96774
913,00000,45,34055
914,00000,39,44170
915,00000,32,39970
916,00000,26,64105
917,00000,23,55942
918,00000,24,35018
919,00000,29,38171
920,00000,36,83912
921,00000,47,24874
922,00000,56,30931
923,00000,65,94814
924,00000,73,08580
925,00000,77,37813
926,00000,81,20953
927,00000,83,85355
928,00000,86,78026
929,00000,87,76881
930,00000,87,73821
931,00000,87,14493
932,00000,87,82381
933,00000,88,16798
934,00000,87,35971
935,00000,86,09669
936,00000,84,91473
937,00000,86,93672
938,00000,85,21402
939,00000,84,94101
940,00000,81,30251
941,00000,82,36024
942,00000,84,30522
943,00000,87,72816
944,00000,89,45958
945,00000,90,16210
946,00000,92,07381
947,00000,95,19510
948,00000,97,85285
949,00000,99,35094
950,00000,99,60258
951,00000,99,83485
952,00000,100,44270
953,00000,100,41906
954,00000,101,32108
955,00000,100,78294
956,00000,100,42826
957,00000,99,01936
958,00000,100,24823
959,00000,101,12208
960,00000,102,32420
961,00000,101,20693
962,00000,101,17395
963,00000,100,08665
964,00000,98,03856
965,00000,96,10625
966,00000,94,06094
967,00000,93,06655
968,00000,90,83395
969,00000,90,96933
970,00000,91,95485
971,00000,95,33218
972,00000,98,32482
973,00000,101,91468
974,00000,103,06128
975,00000,103,61127
976,00000,103,14759
977,00000,103,42700
978,00000,102,47728
979,00000,102,20096
980,00000,101,62338
981,00000,102,70287
982,00000,102,71463
983,00000,103,15386
984,00000,103,29401
985,00000,102,50344
986,00000,103,17762
987,00000,102,47046
988,00000,103,08100
989,00000,103,32976
990,00000,103,94696
991,00000,103,66068
992,00000,102,68417
993,00000,102,33127
994,00000,103,11872
995,00000,102,93950
996,00000,103,10599
997,00000,102,97710
998,00000,103,08558
999,00000,102,98464
1000,00000,103,23624
1001,00000,103,17793
1002,00000,102,66158
1003,00000,101,99318
1004,00000,101,67753
1005,00000,102,13752
1006,00000,102,67844
1007,00000,104,44733
1008,00000,104,31423
1009,00000,104,04916
1010,00000,102,97749
1011,00000,103,07270
1012,00000,103,98237
1013,00000,104,52563
1014,00000,104,47769
1015,00000,103,64456
1016,00000,104,05568
1017,00000,103,64909
1018,00000,103,86163
1019,00000,102,67161
1020,00000,103,00522
1021,00000,102,67421
1022,00000,101,80540
1023,00000,101,27872
1024,00000,101,16695
1025,00000,101,57094
1026,00000,101,34595
1027,00000,100,63142
1028,00000,100,43453
1029,00000,100,60806
1030,00000,100,76550
1031,00000,101,37893
1032,00000,101,95861
1033,00000,102,50558
1034,00000,102,89922
1035,00000,103,25674
1036,00000,103,17480
1037,00000,103,33824
1038,00000,102,99221
1039,00000,103,59412
1040,00000,103,53313
1041,00000,104,33218
1042,00000,103,78041
1043,00000,103,62267
1044,00000,102,76762
1045,00000,102,85570
1046,00000,102,80603
1047,00000,102,90913
1048,00000,103,28981
1049,00000,103,32938
1050,00000,103,84969
1051,00000,103,68534
1052,00000,103,70401
1053,00000,103,19015
1054,00000,103,03406
1055,00000,103,26131
1056,00000,103,90015
1057,00000,104,16631
1058,00000,103,78064
1059,00000,103,59435
1060,00000,103,83463
1061,00000,104,03639
1062,00000,103,91382
1063,00000,103,89048
1064,00000,104,37531
1065,00000,103,81461
1066,00000,103,14932
1067,00000,102,88029
1068,00000,103,11304
1069,00000,103,65635
1070,00000,103,13314
1071,00000,102,69672
1072,00000,102,30556
1073,00000,102,74750
1074,00000,103,52459
1075,00000,103,29665
1076,00000,103,72406
1077,00000,103,41371
1078,00000,103,71362
1079,00000,102,60188
1080,00000,102,73322
1081,00000,103,33902
1082,00000,104,70003
1083,00000,105,10217
1084,00000,104,61752
1085,00000,103,95414
1086,00000,103,38063
1087,00000,103,84909
1088,00000,103,51109
1089,00000,103,80611
1090,00000,103,27057
1091,00000,103,64844
1092,00000,103,55907
1093,00000,103,33723
1094,00000,103,18834
1095,00000,102,99687
1096,00000,103,17904
1097,00000,102,70027
1098,00000,102,49078
1099,00000,102,35032
1100,00000,102,88597
1101,00000,103,04362
1102,00000,102,78268
1103,00000,102,50602
1104,00000,102,61217
1105,00000,102,51093
1106,00000,102,40726
1107,00000,102,53139
1108,00000,102,80452
1109,00000,103,28623
1110,00000,103,21108
1111,00000,103,45895
1112,00000,103,12040
1113,00000,103,01003
1114,00000,102,04166
1115,00000,102,29763
1116,00000,102,08794
1117,00000,102,73670
1118,00000,102,01736
1119,00000,101,88251
1120,00000,101,76534
1121,00000,102,11328
1122,00000,102,63902
1123,00000,102,78924
1124,00000,103,02177
1125,00000,102,99783
1126,00000,103,16221
1127,00000,102,60932
1128,00000,101,81898
1129,00000,101,56361
1130,00000,101,79051
1131,00000,101,81570
1132,00000,102,08891
1133,00000,102,12804
1134,00000,102,87018
1135,00000,102,65514
1136,00000,102,69165
1137,00000,102,04714
1138,00000,102,18130
1139,00000,102,13693
1140,00000,102,33270
1141,00000,101,82461
1142,00000,101,75551
1143,00000,101,92820
1144,00000,102,39014
1145,00000,102,23266
1146,00000,101,99417
1147,00000,101,56712
1148,00000,101,59794
1149,00000,101,78178
1150,00000,102,22024
1151,00000,102,17989
1152,00000,101,98739
1153,00000,101,48002
1154,00000,101,87340
1155,00000,101,70595
1156,00000,101,89241
1157,00000,101,27424
1158,00000,100,87005
1159,00000,101,26826
1160,00000,101,14475
1161,00000,101,34023
1162,00000,100,47658
1163,00000,100,81855
1164,00000,100,74670
1165,00000,100,74189
1166,00000,100,13809
1167,00000,100,40811
1168,00000,100,22276
1169,00000,100,01044
1170,00000,99,10754
1171,00000,98,73746
1172,00000,98,27824
1173,00000,97,93281
1174,00000,97,00857
1175,00000,96,57510
1176,00000,95,74374
1177,00000,95,03028
1178,00000,93,77961
1179,00000,92,37154
1180,00000,90,86427
1181,00000,88,67500
1182,00000,86,47979
1183,00000,83,71523
1184,00000,80,05688
1185,00000,75,94073
1186,00000,70,29289
1187,00000,64,38258
1188,00000,57,29473
1189,00000,50,19468
1190,00000,42,68276
1191,00000,34,89424
1192,00000,27,26046
1193,00000,20,45957
1194,00000,14,44046
1195,00000,10,43214
1196,00000,8,18552
1197,00000,8,67292
1198,00000,10,72504
1199,00000,14,41329
1200,00000,17,18366
